timestamp,PPG
1669285061.6986127,1655
1669285061.7215996,1683
1669285061.7236059,1738
1669285061.7506077,1835
1669285061.7546165,2439
1669285061.7716093,2698
1669285061.7766013,2946
1669285061.7966075,3164
1669285061.7986305,3324
1669285061.8215988,3416
1669285061.8235965,3428
1669285061.8475974,3059
1669285061.8546042,2846
1669285061.8715992,2614
1669285061.9235997,1630
1669285061.9246018,1519
1669285061.9466448,1440
1669285061.9496448,1392
1669285061.97163,1365
1669285061.9976022,1390
1669285061.9986048,1431
1669285062.0216043,1486
1669285062.0236034,1552
1669285062.0255995,1631
1669285062.0466015,1716
1669285062.0486,1797
1669285062.0715983,1871
1669285062.0735986,1932
1669285062.0756,1984
1669285062.0966005,2020
1669285062.0985975,2039
1669285062.1215978,2043
1669285062.1236012,2023
1669285062.1266012,1986
1669285062.1475997,1938
1669285062.1485972,1890
1669285062.175599,1841
1669285062.1765995,1797
1669285062.1785994,1755
1669285062.1966085,1716
1669285062.1985989,1680
1669285062.2216017,1646
1669285062.2236016,1612
1669285062.2465982,1581
1669285062.248598,1558
1669285062.2715983,1544
1669285062.2735975,1540
1669285062.297599,1546
1669285062.2985976,1558
1669285062.2995994,1571
1669285062.3085976,1589
1669285062.321599,1608
1669285062.3236032,1628
1669285062.3475976,1649
1669285062.348601,1670
1669285062.3495986,1687
1669285062.3715982,1698
1669285062.3735962,1704
1669285062.3975997,1708
1669285062.3985977,1708
1669285062.3995976,1705
1669285062.4225993,1704
1669285062.4236052,1705
1669285062.4246006,1708
1669285062.4466105,1713
1669285062.4486108,1720
1669285062.47163,1726
1669285062.4736288,1727
1669285062.4756005,1722
1669285062.4965987,1719
1669285062.4985988,1727
1669285062.5385983,1754
1669285062.5395987,1819
1669285062.5405974,1939
1669285062.541597,2115
1669285062.5716293,2339
1669285062.5736048,2594
1669285062.5746298,2852
1669285062.5756352,3083
1669285062.5966015,3258
1669285062.5986006,3365
1669285062.6465974,3263
1669285062.648663,3106
1669285062.6716003,2911
1669285062.6736333,2698
1669285062.6746347,2478
1669285062.700652,2270
1669285062.7015998,2083
1669285062.7236042,1722
1669285062.7255995,1663
1669285062.7466123,1626
1669285062.7736013,1569
1669285062.7975981,1561
1669285062.8216007,1623
1669285062.8236017,1672
1669285062.8465993,1731
1669285062.8716097,1920
1669285062.8735988,1970
1669285062.8745985,2004
1669285062.8976023,2021
1669285062.9085956,2021
1669285062.9215982,2011
1669285062.923598,1989
1669285062.9485972,1878
1669285062.973601,1825
1669285062.974599,1772
1669285062.9966006,1723
1669285062.9986036,1678
1669285062.9996057,1634
1669285063.0216048,1599
1669285063.0466063,1539
1669285063.0486026,1537
1669285063.071599,1539
1669285063.098598,1587
1669285063.1005998,1617
1669285063.1246006,1643
1669285063.1256075,1663
1669285063.146597,1680
1669285063.1486027,1692
1669285063.1496062,1703
1669285063.178598,1714
1669285063.179604,1722
1669285063.1806026,1731
1669285063.197598,1739
1669285063.1986012,1745
1669285063.2245996,1752
1669285063.225607,1754
1669285063.226603,1755
1669285063.246673,1754
1669285063.273599,1754
1669285063.2966044,1752
1669285063.298612,1748
1669285063.2995992,1748
1669285063.321603,1744
1669285063.3265972,1735
1669285063.3286388,1724
1669285063.3715992,1668
1669285063.3736024,1650
1669285063.3976004,1637
1669285063.4475992,1724
1669285063.44869,1814
1669285063.4496758,1956
1669285063.4506063,2154
1669285063.4715993,2400
1669285063.4736044,2672
1669285063.4756038,2949
1669285063.4975986,3199
1669285063.4985983,3397
1669285063.5216017,3523
1669285063.5236,3569
1669285063.5386262,3532
1669285063.5466444,3420
1669285063.5486465,3247
1669285063.57163,3031
1669285063.5736048,2795
1669285063.5976028,2557
1669285063.5986834,2327
1669285063.5996814,2119
1669285063.6216078,1941
1669285063.6235998,1796
1669285063.6476128,1687
1669285063.6486487,1612
1669285063.649633,1568
1669285063.6716247,1543
1669285063.6736279,1531
1669285063.6976118,1533
1669285063.6987891,1544
1669285063.6997519,1567
1669285063.7216327,1602
1669285063.7236018,1644
1669285063.7476244,1696
1669285063.7486088,1754
1669285063.7496283,1816
1669285063.7716463,1877
1669285063.7736332,1927
1669285063.8185997,1968
1669285063.8195982,2001
1669285063.820601,2020
1669285063.8216004,2024
1669285063.8236027,2012
1669285063.847601,1984
1669285063.871633,1945
1669285063.873603,1898
1669285063.8746314,1846
1669285063.8976116,1799
1669285063.8987958,1755
1669285063.8997881,1718
1669285063.9016159,1685
1669285063.921633,1658
1669285063.9236245,1638
1669285063.9476464,1621
1669285063.9486518,1601
1669285063.9496315,1589
1669285063.971634,1585
1669285063.9736025,1582
1669285063.9756005,1580
1669285063.997608,1589
1669285063.998633,1604
1669285064.0215979,1618
1669285064.0235984,1626
1669285064.0476408,1637
1669285064.0486462,1650
1669285064.0496354,1665
1669285064.071637,1680
1669285064.0986056,1729
1669285064.0996003,1744
1669285064.1216176,1759
1669285064.148605,1782
1669285064.1496093,1780
1669285064.171602,1777
1669285064.1726005,1771
1669285064.179598,1765
1669285064.197597,1759
1669285064.1986003,1750
1669285064.221601,1743
1669285064.2236004,1733
1669285064.2466037,1728
1669285064.248602,1726
1669285064.2495995,1723
1669285064.2715974,1723
1669285064.2735975,1720
1669285064.296597,1718
1669285064.298605,1719
1669285064.3215966,1719
1669285064.3466055,1720
1669285064.3486414,1718
1669285064.349599,1712
1669285064.3506637,1703
1669285064.3736033,1660
1669285064.397603,1653
1669285064.4216118,1801
1669285064.4236014,1946
1669285064.4585984,2151
1669285064.4985995,3386
1669285064.4996812,3508
1669285064.500683,3546
1669285064.5225987,3503
1669285064.5236032,3375
1669285064.5716012,2461
1669285064.573604,2220
1669285064.5966015,2004
1669285064.598604,1824
1669285064.621629,1679
1669285064.623605,1571
1669285064.6486323,1441
1669285064.6496193,1441
1669285064.6715991,1452
1669285064.699601,1586
1669285064.7215989,1646
1669285064.7235997,1707
1669285064.7475982,1773
1669285064.7485986,1835
1669285064.7495983,1898
1669285064.7715993,1954
1669285064.7735972,1995
1669285064.7965977,2021
1669285064.798604,2032
1669285064.7996063,2022
1669285064.8215997,1993
1669285064.8236,1950
1669285064.847601,1896
1669285064.8486133,1833
1669285064.8496087,1770
1669285064.8726208,1712
1669285064.8736317,1663
1669285064.9006972,1620
1669285064.9016008,1589
1669285064.9035985,1562
1669285064.9215987,1547
1669285064.9235983,1539
1669285064.9476662,1538
1669285064.9486055,1549
1669285064.9496276,1564
1669285064.9725988,1584
1669285064.9736333,1602
1669285065.001598,1618
1669285065.0026007,1638
1669285065.0035985,1665
1669285065.0225968,1699
1669285065.0236008,1731
1669285065.0476658,1762
1669285065.0726085,1784
1669285065.0736368,1796
1669285065.0746322,1803
1669285065.0988708,1803
1669285065.0997827,1801
1669285065.100787,1800
1669285065.1026018,1794
1669285065.121599,1785
1669285065.1235986,1777
1669285065.1476676,1771
1669285065.148674,1768
1669285065.1495988,1765
1669285065.1725965,1767
1669285065.173614,1768
1669285065.1965964,1770
1669285065.1987967,1764
1669285065.1997857,1759
1669285065.2215989,1754
1669285065.2236333,1752
1669285065.2476666,1749
1669285065.2486696,1741
1669285065.2496705,1736
1669285065.2976,1727
1669285065.2986007,1728
1669285065.3226001,1725
1669285065.3475966,1701
1669285065.3486602,1686
1669285065.3495984,1671
1669285065.3716013,1670
1669285065.3735986,1689
1669285065.397597,1748
1669285065.3985975,1855
1669285065.423606,2486
1669285065.4475963,2744
1669285065.4486592,2975
1669285065.4496589,3160
1669285065.4716313,3282
1669285065.473632,3326
1669285065.4966364,3294
1669285065.5236008,2829
1669285065.5246017,2600
1669285065.5475967,2363
1669285065.5486584,2130
1669285065.5496724,1919
1669285065.5725987,1737
1669285065.5736299,1589
1669285065.5975966,1479
1669285065.5986583,1400
1669285065.5996726,1349
1669285065.6256368,1324
1669285065.6275966,1319
1669285065.648603,1431
1669285065.6716,1496
1669285065.673606,1570
1669285065.697597,1653
1669285065.6996722,1740
1669285065.742597,1823
1669285065.7436328,1900
1669285065.7445977,1964
1669285065.7457008,2016
1669285065.7476223,2049
1669285065.7726004,2059
1669285065.7736323,2047
1669285065.7746255,2016
1669285065.7976968,1970
1669285065.7987936,1909
1669285065.799781,1842
1669285065.8216045,1775
1669285065.8236141,1709
1669285065.8476002,1653
1669285065.8486354,1606
1669285065.8496134,1573
1669285065.8725965,1552
1669285065.873633,1542
1669285065.89761,1535
1669285065.898634,1530
1669285065.9436,1544
1669285065.9506,1560
1669285065.9516003,1578
1669285065.9736006,1633
1669285065.997597,1645
1669285065.998634,1653
1669285065.9995978,1659
1669285066.022599,1664
1669285066.0235996,1667
1669285066.0506005,1673
1669285066.072598,1706
1669285066.0736032,1725
1669285066.0976012,1743
1669285066.0985973,1759
1669285066.1215978,1768
1669285066.1236014,1770
1669285066.1466057,1771
1669285066.1526043,1770
1669285066.1536012,1765
1669285066.1545992,1754
1669285066.172601,1742
1669285066.173629,1728
1669285066.196598,1712
1669285066.198673,1696
1669285066.1996744,1680
1669285066.222599,1670
1669285066.2235992,1663
1669285066.2476034,1663
1669285066.248642,1668
1669285066.2496328,1684
1669285066.272607,1718
1669285066.2736332,1787
1669285066.2975993,1899
1669285066.2987883,2058
1669285066.2997837,2260
1669285066.3215983,2482
1669285066.3236039,2703
1669285066.3477168,2899
1669285066.3486173,3052
1669285066.3516316,3146
1669285066.3823338,3169
1669285066.38314,3116
1669285066.3841295,3002
1669285066.3971796,2840
1669285066.4221277,2643
1669285066.423126,2422
1669285066.425126,2187
1669285066.4473197,1964
1669285066.448179,1763
1669285066.4501283,1599
1669285066.4721606,1475
1669285066.4731615,1387
1669285066.4976363,1331
1669285066.4986298,1301
1669285066.4994416,1292
1669285066.5224395,1305
1669285066.5476308,1336
1669285066.5485096,1378
1669285066.549639,1432
1669285066.5724492,1496
1669285066.5734646,1573
1669285066.5744824,1659
1669285066.597624,1746
1669285066.5986285,1831
1669285066.5996237,1910
1669285066.6224651,1976
1669285066.6234655,2023
1669285066.649454,2052
1669285066.6754398,2027
1669285066.677461,1985
1669285066.6984377,1806
1669285066.722442,1745
1669285066.723438,1689
1669285066.747487,1642
1669285066.748502,1601
1669285066.7504811,1570
1669285066.7724395,1549
1669285066.7974412,1536
1669285066.798488,1542
1669285066.8224418,1552
1669285066.8234441,1563
1669285066.847494,1575
1669285066.8484385,1588
1669285066.849499,1602
1669285066.8724682,1623
1669285066.8734686,1642
1669285066.8975015,1660
1669285066.9224389,1678
1669285066.923438,1692
1669285066.9244382,1702
1669285066.925437,1713
1669285066.9474392,1726
1669285066.9484694,1730
1669285066.9734557,1730
1669285067.018443,1732
1669285067.01944,1730
1669285067.0474393,1718
1669285067.0484426,1706
1669285067.0494432,1696
1669285067.0724645,1684
1669285067.07344,1669
1669285067.0974388,1656
1669285067.1234407,1630
1669285067.1474366,1655
1669285067.1484468,1704
1669285067.1494434,1790
1669285067.1724393,1919
1669285067.1734395,2095
1669285067.2004573,2315
1669285067.2024384,2558
1669285067.2034373,2798
1669285067.2224424,3005
1669285067.2234418,3157
1669285067.2474399,3248
1669285067.2484689,3268
1669285067.249469,3215
1669285067.2724736,3095
1669285067.3024383,2482
1669285067.3034735,2257
1669285067.3224416,2045
1669285067.3484604,1581
1669285067.3724382,1494
1669285067.3734405,1433
1669285067.3744402,1390
1669285067.3974407,1366
1669285067.398444,1357
1669285067.4224403,1363
1669285067.423439,1383
1669285067.4244392,1416
1669285067.44744,1463
1669285067.4485123,1529
1669285067.4495153,1606
1669285067.472469,1686
1669285067.4734697,1766
1669285067.4975207,1836
1669285067.4985204,1896
1669285067.499533,1947
1669285067.5224388,1983
1669285067.5234444,2000
1669285067.5475547,1996
1669285067.548529,1977
1669285067.5495229,1947
1669285067.5724683,1906
1669285067.5794716,1854
1669285067.59764,1799
1669285067.5985515,1748
1669285067.600438,1701
1669285067.62244,1661
1669285067.6234398,1623
1669285067.6584375,1592
1669285067.6594384,1567
1669285067.660438,1549
1669285067.6624382,1543
1669285067.6976306,1540
1669285067.6986294,1544
1669285067.7004378,1555
1669285067.7014384,1569
1669285067.7224367,1581
1669285067.7234385,1591
1669285067.7474542,1605
1669285067.7724717,1620
1669285067.7734745,1638
1669285067.7744436,1655
1669285067.797627,1669
1669285067.7986264,1678
1669285067.8004386,1679
1669285067.822479,1676
1669285067.8234375,1670
1669285067.8244643,1666
1669285067.8476315,1666
1669285067.8485632,1668
1669285067.8724678,1672
1669285067.8734708,1677
1669285067.8744411,1682
1669285067.8974426,1691
1669285067.8986263,1698
1669285067.9244733,1708
1669285067.9254405,1711
1669285067.9274416,1717
1669285067.9476287,1715
1669285067.9484591,1713
1669285067.9724724,1709
1669285067.9734735,1704
1669285067.9744399,1700
1669285067.9976408,1693
1669285067.9986436,1685
1669285068.0224402,1677
1669285068.0234942,1670
1669285068.0244644,1664
1669285068.0476396,1664
1669285068.0484395,1661
1669285068.0744417,1623
1669285068.097439,1623
1669285068.1224391,1655
1669285068.1234403,1733
1669285068.1244392,1862
1669285068.1254425,2049
1669285068.147527,2284
1669285068.1724396,3050
1669285068.1734402,3233
1669285068.1974795,3352
1669285068.2224412,3256
1669285068.2234402,3083
1669285068.247439,2868
1669285068.248441,2629
1669285068.2724414,2387
1669285068.2734427,2159
1669285068.2744386,1956
1669285068.2984416,1785
1669285068.2994626,1647
1669285068.3044407,1549
1669285068.3224397,1490
1669285068.3234386,1463
1669285068.3474433,1460
1669285068.3484445,1468
1669285068.3724358,1482
1669285068.3734403,1497
1669285068.3984377,1587
1669285068.422444,1625
1669285068.423441,1670
1669285068.447441,1718
1669285068.4724388,1776
1669285068.473439,1833
1669285068.4744394,1883
1669285068.4754367,1922
1669285068.4774373,1947
1669285068.4975202,1961
1669285068.4985218,1956
1669285068.522444,1946
1669285068.5484445,1800
1669285068.573441,1656
1669285068.5974538,1622
1669285068.59844,1593
1669285068.6474364,1565
1669285068.6484463,1569
1669285068.672439,1578
1669285068.6734369,1593
1669285068.6744385,1606
1669285068.6974387,1618
1669285068.7224429,1641
1669285068.7234416,1659
1669285068.747445,1680
1669285068.772438,1700
1669285068.7804635,1719
1669285068.7975125,1738
1669285068.7985115,1756
1669285068.7994688,1766
1669285068.8004746,1767
1669285068.8224387,1763
1669285068.8234732,1754
1669285068.8244421,1743
1669285068.8475122,1739
1669285068.8484986,1740
1669285068.8724742,1742
1669285068.8734813,1743
1669285068.8744738,1742
1669285068.897506,1741
1669285068.8985126,1735
1669285068.9384768,1728
1669285068.9394774,1719
1669285068.9414415,1715
1669285068.942481,1710
1669285068.9434407,1711
1669285068.972474,1712
1669285068.9734747,1710
1669285068.9744742,1702
1669285068.9974923,1693
1669285068.9984994,1682
1669285069.022441,1670
1669285069.023438,1656
1669285069.0244384,1643
1669285069.047531,1637
1669285069.0485291,1639
1669285069.0724723,1656
1669285069.0734777,1693
1669285069.0974493,1771
1669285069.098627,1896
1669285069.1227248,2073
1669285069.12373,2294
1669285069.1247258,2539
1669285069.1257262,2783
1669285069.1467211,3005
1669285069.14872,3177
1669285069.1717205,3281
1669285069.1737223,3310
1669285069.174725,3262
1669285069.1970074,3142
1669285069.199007,2969
1669285069.2220068,2762
1669285069.2230098,2534
1669285069.2250333,2300
1669285069.2470934,2074
1669285069.249091,1869
1669285069.2720447,1689
1669285069.2740073,1545
1669285069.2750077,1446
1669285069.2980168,1384
1669285069.3000498,1357
1669285069.3220065,1357
1669285069.323012,1369
1669285069.3250113,1388
1669285069.3720114,1491
1669285069.3730094,1544
1669285069.3750472,1604
1669285069.3970122,1668
1669285069.3980155,1735
1669285069.4220116,1799
1669285069.4230113,1862
1669285069.4490223,1974
1669285069.472008,1978
1669285069.4730074,1967
1669285069.5230076,1871
1669285069.52501,1825
1669285069.5260074,1781
1669285069.5470095,1737
1669285069.548005,1692
1669285069.5500135,1646
1669285069.5780134,1604
1669285069.5820055,1528
1669285069.5970058,1518
1669285069.6220071,1509
1669285069.6230075,1508
1669285069.6250083,1510
1669285069.6470048,1517
1669285069.648005,1529
1669285069.675011,1597
1669285069.6970072,1621
1669285069.69804,1641
1669285069.7230122,1662
1669285069.7250087,1682
1669285069.7260153,1697
1669285069.7470655,1711
1669285069.77301,1741
1669285069.775012,1748
1669285069.7970798,1759
1669285069.8720365,1758
1669285069.8730092,1752
1669285069.875011,1744
1669285069.8970163,1734
1669285069.8980086,1718
1669285069.9220102,1701
1669285069.923009,1685
1669285069.925012,1670
1669285069.9470403,1656
1669285069.949007,1642
1669285069.9720473,1629
1669285069.9740179,1618
1669285069.9980063,1634
1669285070.0220094,1683
1669285070.0240161,1773
1669285070.0250132,1911
1669285070.0470536,2092
1669285070.0480063,2297
1669285070.072034,2504
1669285070.0730095,2694
1669285070.0750396,2850
1669285070.0970929,2959
1669285070.0980852,3009
1669285070.1220086,2993
1669285070.147024,2627
1669285070.1480367,2437
1669285070.1720436,2244
1669285070.1730118,2050
1669285070.1750424,1862
1669285070.2180066,1696
1669285070.2200086,1562
1669285070.2210116,1459
1669285070.222007,1377
1669285070.227041,1322
1669285070.2470224,1292
1669285070.272038,1286
1669285070.2730098,1296
1669285070.297094,1323
1669285070.2990072,1370
1669285070.300104,1432
1669285070.3010085,1508
1669285070.32201,1592
1669285070.3230417,1680
1669285070.3250427,1774
1669285070.3472517,1863
1669285070.3481646,1941
1669285070.3723767,2001
1669285070.3733442,2047
1669285070.3743787,2072
1669285070.3975277,2074
1669285070.3985248,2056
1669285070.422343,2022
1669285070.4233418,1976
1669285070.4243426,1922
1669285070.4723446,1745
1669285070.4733706,1690
1669285070.4743779,1640
1669285070.4973454,1599
1669285070.5063748,1564
1669285070.5223777,1536
1669285070.523349,1514
1669285070.5243526,1502
1669285070.5473478,1505
1669285070.5484362,1514
1669285070.5723612,1526
1669285070.5733652,1538
1669285070.5743794,1553
1669285070.5973964,1571
1669285070.5983977,1586
1669285070.6223478,1592
1669285070.6233447,1598
1669285070.6243804,1606
1669285070.6474044,1612
1669285070.6483965,1620
1669285070.672381,1629
1669285070.6773722,1639
1669285070.6783984,1648
1669285070.697403,1657
1669285070.7223485,1665
1669285070.7263505,1695
1669285070.7474387,1699
1669285070.7483628,1699
1669285070.7743473,1696
1669285070.7973824,1692
1669285070.8583446,1727
1669285070.8723488,2050
1669285070.897343,2221
1669285070.8983433,2409
1669285070.8993433,2596
1669285070.9223425,2762
1669285070.923342,2887
1669285070.9243546,2962
1669285070.9473453,2990
1669285070.948343,2962
1669285070.972342,2888
1669285070.973343,2767
1669285070.9743414,2610
1669285070.997349,2428
1669285070.9983406,2232
1669285071.0223422,2048
1669285071.023344,1879
1669285071.04741,1733
1669285071.048411,1612
1669285071.0494125,1508
1669285071.0723836,1429
1669285071.0733411,1377
1669285071.0983427,1354
1669285071.1223454,1383
1669285071.1474028,1551
1669285071.148417,1635
1669285071.172373,1722
1669285071.1983435,1997
1669285071.223343,2036
1669285071.2243447,2050
1669285071.22635,2052
1669285071.247374,2041
1669285071.2483742,2017
1669285071.272342,1980
1669285071.2733426,1930
1669285071.2993462,1872
1669285071.301342,1815
1669285071.3223512,1753
1669285071.3233454,1697
1669285071.3243465,1649
1669285071.3263445,1608
1669285071.347412,1575
1669285071.3733475,1526
1669285071.3743477,1524
1669285071.397345,1527
1669285071.4223523,1553
1669285071.4243553,1565
1669285071.4474056,1581
1669285071.4483747,1596
1669285071.4723706,1611
1669285071.473374,1623
1669285071.4743698,1639
1669285071.4983757,1657
1669285071.4993758,1673
1669285071.5223544,1688
1669285071.523349,1699
1669285071.5243466,1707
1669285071.5474107,1714
1669285071.548411,1717
1669285071.5723445,1716
1669285071.5733519,1716
1669285071.5743434,1713
1669285071.5974255,1710
1669285071.5984237,1709
1669285071.6223435,1716
1669285071.6233525,1723
1669285071.62535,1725
1669285071.6474404,1727
1669285071.6484375,1732
1669285071.673377,1750
1669285071.677431,1799
1669285071.6784325,1892
1669285071.6974454,2032
1669285071.698443,2211
1669285071.7223475,2416
1669285071.7233443,2625
1669285071.7474353,2817
1669285071.7484348,2970
1669285071.772387,3069
1669285071.7733436,3108
1669285071.7743833,3082
1669285071.797433,2997
1669285071.7984347,2864
1669285071.7993462,2700
1669285071.822345,2520
1669285071.8233433,2327
1669285071.824346,2136
1669285071.8476121,1960
1669285071.8486109,1810
1669285071.8725593,1693
1669285071.8735535,1606
1669285071.8745513,1544
1669285071.8977616,1501
1669285071.8987923,1475
1669285071.9227111,1462
1669285071.9237041,1459
1669285071.9247084,1465
1669285071.9477992,1486
1669285071.9487956,1524
1669285071.9727476,1574
1669285071.9737036,1635
1669285071.9790423,1709
1669285072.0219648,1929
1669285072.0239587,1979
1669285072.024969,2013
1669285072.07199,2042
1669285072.0739655,2025
1669285072.0989587,1903
1669285072.1389637,1847
1669285072.1399767,1792
1669285072.1724782,1654
1669285072.173495,1618
1669285072.1974766,1589
1669285072.1984763,1569
1669285072.1994858,1556
1669285072.2224798,1551
1669285072.2234845,1552
1669285072.2474828,1589
1669285072.2484834,1605
1669285072.2724771,1619
1669285072.2734792,1630
1669285072.274477,1643
1669285072.2974827,1661
1669285072.2984807,1680
1669285072.322478,1703
1669285072.32348,1718
1669285072.3244789,1729
1669285072.3474844,1739
1669285072.3484774,1744
1669285072.3724785,1747
1669285072.3734765,1750
1669285072.3744788,1756
1669285072.3975594,1765
1669285072.4234807,1774
1669285072.424492,1768
1669285072.4474795,1759
1669285072.4734843,1728
1669285072.4764771,1726
1669285072.497476,1736
1669285072.498485,1773
1669285072.522483,1846
1669285072.5234828,1966
1669285072.5474753,2136
1669285072.5734806,2983
1669285072.5774841,3126
1669285072.5974824,3207
1669285072.598491,3221
1669285072.6224864,3173
1669285072.62348,3068
1669285072.6724875,2360
1669285072.673486,2164
1669285072.7224789,1634
1669285072.7234805,1570
1669285072.7244806,1532
1669285072.7524815,1514
1669285072.7534835,1512
1669285072.7844806,1520
1669285072.7884803,1581
1669285072.8220115,1622
1669285072.8240097,1674
1669285072.8250163,1740
1669285072.8260126,1811
1669285072.84701,1881
1669285072.8490102,1943
1669285072.8730147,1993
1669285072.87401,2029
1669285072.897008,2049
1669285072.9230185,2054
1669285072.9240115,2043
1669285072.92502,2016
1669285072.9260204,1978
1669285072.947007,1925
1669285072.9490094,1866
1669285072.9500084,1810
1669285072.9726174,1755
1669285072.9736257,1705
1669285072.9976122,1665
1669285072.9986148,1632
1669285072.9996133,1606
1669285073.0226135,1589
1669285073.023614,1580
1669285073.030645,1578
1669285073.0476725,1582
1669285073.048648,1594
1669285073.0736444,1605
1669285073.0746121,1620
1669285073.0776863,1634
1669285073.122619,1688
1669285073.1236153,1705
1669285073.1476772,1722
1669285073.1486468,1738
1669285073.1726108,1751
1669285073.1976132,1758
1669285073.1986468,1767
1669285073.2036452,1771
1669285073.2046483,1774
1669285073.2056165,1778
1669285073.2076542,1782
1669285073.222615,1787
1669285073.2276115,1793
1669285073.2476861,1804
1669285073.2486508,1810
1669285073.2726157,1814
1669285073.273651,1810
1669285073.2746122,1806
1669285073.2976134,1797
1669285073.2986422,1786
1669285073.3226154,1772
1669285073.323621,1760
1669285073.3246157,1747
1669285073.3476427,1728
1669285073.3486423,1709
1669285073.3726144,1698
1669285073.373613,1699
1669285073.4226139,1727
1669285073.4236178,1795
1669285073.4246151,1915
1669285073.425625,2089
1669285073.4276552,2303
1669285073.447687,2538
1669285073.472644,2770
1669285073.4736488,2978
1669285073.4746125,3131
1669285073.4756136,3223
1669285073.4976795,3246
1669285073.4986136,3206
1669285073.5266125,2606
1669285073.547688,2414
1669285073.5486472,2225
1669285073.5726516,2057
1669285073.5736156,1911
1669285073.597642,1793
1669285073.6226134,1615
1669285073.6236227,1596
1669285073.647682,1588
1669285073.6726167,1617
1669285073.6736252,1647
1669285073.6746223,1692
1669285073.6976135,1745
1669285073.6986122,1805
1669285073.726615,1868
1669285073.7276103,1924
1669285073.7486143,2053
1669285073.7726638,2074
1669285073.7736492,2073
1669285073.7766109,2055
1669285073.7976184,2023
1669285073.79862,1985
1669285073.822613,1944
1669285073.8486114,1783
1669285073.8726132,1750
1669285073.8736107,1722
1669285073.8976116,1700
1669285073.8986115,1684
1669285073.9226131,1673
1669285073.923618,1666
1669285073.9476187,1664
1669285073.9486175,1668
1669285073.9496107,1674
1669285073.9506123,1680
1669285073.9726121,1687
1669285073.9736154,1695
1669285073.9976892,1704
1669285073.9986863,1714
1669285073.9996123,1724
1669285074.0226145,1737
1669285074.0236146,1752
1669285074.0596132,1772
1669285074.0606112,1791
1669285074.097614,1837
1669285074.098616,1849
1669285074.0996137,1859
1669285074.1016116,1864
1669285074.1226292,1867
1669285074.138613,1862
1669285074.1476135,1851
1669285074.1486454,1839
1669285074.1496165,1830
1669285074.1726506,1824
1669285074.1736493,1819
1669285074.1976798,1813
1669285074.19868,1806
1669285074.2226164,1797
1669285074.223615,1786
1669285074.2246146,1776
1669285074.227616,1770
1669285074.2476869,1768
1669285074.2486854,1775
1669285074.2726433,1798
1669285074.273649,1847
1669285074.2976933,1934
1669285074.2986312,2067
1669285074.2996147,2243
1669285074.3226159,2452
1669285074.3236217,2675
1669285074.3477075,2887
1669285074.3487113,3068
1669285074.353647,3201
1669285074.3726447,3275
1669285074.3736477,3279
1669285074.3976395,3219
1669285074.3986454,3105
1669285074.3996258,2947
1669285074.4226222,2764
1669285074.4236162,2565
1669285074.447659,2366
1669285074.4486601,2180
1669285074.4496124,2016
1669285074.4726274,1879
1669285074.4736412,1773
1669285074.4976873,1695
1669285074.4986863,1642
1669285074.4996147,1612
1669285074.5226185,1606
1669285074.5476856,1612
1669285074.5486872,1629
1669285074.5496142,1654
1669285074.572648,1697
1669285074.573655,1751
1669285074.5746121,1813
1669285074.5986173,1887
1669285074.5996127,1966
1669285074.6016133,2043
1669285074.6226132,2110
1669285074.6366484,2162
1669285074.6476684,2197
1669285074.6486702,2215
1669285074.6496308,2213
1669285074.6726124,2190
1669285074.6736407,2153
1669285074.6986847,2100
1669285074.722618,1918
1669285074.7236218,1860
1669285074.7476754,1807
1669285074.7486775,1760
1669285074.7496116,1724
1669285074.7726429,1701
1669285074.7736495,1691
1669285074.7996151,1715
1669285074.8226244,1727
1669285074.8236206,1742
1669285074.8476799,1764
1669285074.8486557,1784
1669285074.8496144,1800
1669285074.8726134,1818
1669285074.8986106,1851
1669285074.899613,1859
1669285074.9226167,1866
1669285074.948614,1883
1669285074.9496143,1887
1669285074.9726162,1893
1669285074.977612,1893
1669285074.978628,1891
1669285074.9976115,1889
1669285075.0226152,1879
1669285075.0236301,1866
1669285075.0246127,1853
1669285075.0476186,1844
1669285075.0486102,1835
1669285075.0496128,1827
1669285075.0726109,1823
1669285075.0736146,1824
1669285075.0976102,1829
1669285075.0986106,1835
1669285075.122614,1840
1669285075.1236136,1858
1669285075.1476872,1895
1669285075.1486108,1973
1669285075.1496153,2094
1669285075.1516109,2255
1669285075.1726456,2448
1669285075.1736503,2654
1669285075.1976142,2850
1669285075.226613,3233
1669285075.247645,3186
1669285075.2736132,2522
1669285075.299611,1965
1669285075.338613,1833
1669285075.3396184,1730
1669285075.373615,1540
1669285075.3746166,1545
1669285075.3976426,1572
1669285075.3986123,1615
1669285075.3996134,1671
1669285075.4226162,1741
1669285075.4236124,1820
1669285075.4476404,1902
1669285075.448613,1982
1669285075.449614,2059
1669285075.4726124,2124
1669285075.4736516,2175
1669285075.4976106,2204
1669285075.5226202,2212
1669285075.5236166,2205
1669285075.5246174,2183
1669285075.525621,2143
1669285075.5476859,2088
1669285075.5486135,2027
1669285075.5496163,1969
1669285075.5726423,1909
1669285075.5736127,1853
1669285075.5976136,1801
1669285075.5986164,1759
1669285075.5996113,1722
1669285075.6226137,1699
1669285075.6236188,1682
1669285075.6476717,1669
1669285075.6486137,1663
1669285075.6496117,1667
1669285075.6726437,1679
1669285075.6736507,1699
1669285075.6976693,1716
1669285075.6986184,1732
1669285075.6996157,1744
1669285075.7226124,1751
1669285075.7236154,1756
1669285075.7477028,1759
1669285075.748615,1762
1669285075.7496126,1766
1669285075.7726479,1772
1669285075.7736595,1782
1669285075.7976134,1795
1669285075.7986145,1812
1669285075.7996113,1827
1669285075.8236237,1832
1669285075.824621,1833
1669285075.872626,1824
1669285075.8736432,1819
1669285075.8976138,1819
1669285075.922619,1807
1669285075.923616,1795
1669285075.9476159,1785
1669285075.9486122,1776
1669285075.9496124,1770
1669285075.9786117,1764
1669285075.979685,1761
1669285075.9816115,1765
1669285075.99761,1786
1669285075.998612,1843
1669285076.0226107,1947
1669285076.0236156,2104
1669285076.047687,2304
1669285076.048613,2529
1669285076.0496151,2756
1669285076.0976136,3246
1669285076.0996478,3301
1669285076.1236436,3292
1669285076.1246521,3216
1669285076.1476862,3081
1669285076.1486194,2906
1669285076.149613,2699
1669285076.1736157,2093
1669285076.1976123,1940
1669285076.198612,1819
1669285076.2246137,1645
1669285076.2476718,1620
1669285076.248613,1606
1669285076.2496128,1600
1669285076.272648,1605
1669285076.2736123,1622
1669285076.2976856,1658
1669285076.322616,1821
1669285076.3236213,1887
1669285076.347666,1951
1669285076.3486133,2008
1669285076.372645,2052
1669285076.3736145,2080
1669285076.3746297,2092
1669285076.3976867,2088
1669285076.398613,2065
1669285076.399615,2030
1669285076.422614,1989
1669285076.4236188,1941
1669285076.4476726,1894
1669285076.4726222,1751
1669285076.4986155,1655
1669285076.499614,1632
1669285076.5226147,1620
1669285076.5726116,1665
1669285076.618611,1684
1669285076.619626,1701
1669285076.621612,1717
1669285076.6226184,1731
1669285076.648614,1759
1669285076.649614,1759
1669285076.672613,1760
1669285076.6736112,1764
1669285076.6976104,1764
1669285076.69861,1761
1669285076.7236183,1763
1669285076.747619,1763
1669285076.7486122,1759
1669285076.7496135,1756
1669285076.772617,1749
1669285076.773613,1744
1669285076.797665,1739
1669285076.7986112,1736
1669285076.799614,1735
1669285076.8226194,1736
1669285076.8236158,1731
1669285076.8476863,1724
1669285076.8486109,1710
1669285076.8726487,1696
1669285076.8736143,1685
1669285076.897686,1676
1669285076.8986118,1665
1669285076.8996441,1658
1669285076.9226146,1656
1669285076.9236145,1660
1669285076.9246213,1664
1669285076.9476802,1682
1669285076.9486122,1722
1669285076.9496489,1798
1669285076.972616,1922
1669285076.9776108,2095
1669285076.9786208,2307
1669285076.9976826,2544
1669285077.0226223,2782
1669285077.0236158,2999
1669285077.0246148,3172
1669285077.0476868,3283
1669285077.0486133,3323
1669285077.0496485,3291
1669285077.0726438,3190
1669285077.097611,2613
1669285077.1226165,2393
1669285077.1236138,2196
1669285077.124615,2030
1669285077.1476514,1895
1669285077.148611,1788
1669285077.149651,1708
1669285077.197623,1622
1669285077.1986125,1620
1669285077.199614,1624
1669285077.2226202,1636
1669285077.2236142,1657
1669285077.258621,1684
1669285077.2596164,1723
1669285077.2616103,1770
1669285077.2626107,1822
1669285077.2976649,1879
1669285077.2986116,1931
1669285077.2996433,1975
1669285077.3016124,2005
1669285077.3226264,2020
1669285077.3236165,2026
1669285077.3476863,2020
1669285077.348612,1998
1669285077.3496485,1965
1669285077.3726478,1920
1669285077.3736115,1872
1669285077.3976443,1821
1669285077.3986123,1769
1669285077.3996406,1726
1669285077.4226174,1691
1669285077.423614,1659
1669285077.449615,1602
1669285077.4726186,1595
1669285077.4746497,1594
1669285077.5726197,1700
1669285077.6016169,1756
1669285077.622615,1766
1669285077.623615,1771
1669285077.6476188,1775
1669285077.6486118,1771
1669285077.6726096,1764
1669285077.69761,1733
1669285077.6986196,1732
1669285077.6996114,1738
1669285077.7226167,1746
1669285077.723618,1752
1669285077.7476156,1756
1669285077.7486122,1754
1669285077.7736115,1732
1669285077.7976139,1720
1669285077.7986157,1708
1669285077.8256128,1667
1669285077.8476107,1655
1669285077.8726134,1662
1669285077.8736112,1689
1669285077.8986115,1746
1669285077.9246144,2390
1669285077.947611,2618
1669285077.9486127,2832
1669285077.9726126,3012
1669285077.9736133,3137
1669285077.9976258,3197
1669285077.998615,3188
1669285078.022614,3113
1669285078.023613,2975
1669285078.028613,2795
1669285078.029614,2584
1669285078.0316098,2362
1669285078.0476103,2144
1669285078.0726113,1946
1669285078.073611,1779
1669285078.074619,1647
1669285078.0976112,1551
1669285078.098617,1484
1669285078.122617,1446
1669285078.1236148,1429
1669285078.1486154,1481
1669285078.1496136,1515
1669285078.1726122,1558
1669285078.1736507,1613
1669285078.1976116,1677
1669285078.198618,1747
1669285078.2226164,1814
1669285078.223615,1876
1669285078.224619,1930
1669285078.2476144,1972
1669285078.2486134,1999
1669285078.2496455,2012
1669285078.2726498,2011
1669285078.2736123,1998
1669285078.2978714,1972
1669285078.2988503,1933
1669285078.3228493,1887
1669285078.3238523,1835
1669285078.3248498,1783
1669285078.3478832,1734
1669285078.3488474,1690
1669285078.349883,1653
1669285078.3728473,1622
1669285078.3978503,1596
1669285078.3988812,1581
1669285078.422847,1574
1669285078.4238486,1574
1669285078.4248548,1580
1669285078.4258487,1589
1669285078.4469104,1602
1669285078.4528859,1611
1669285078.4538856,1621
1669285078.4728622,1632
1669285078.4738483,1638
1669285078.4978585,1644
1669285078.498848,1654
1669285078.4998834,1662
1669285078.5388882,1671
1669285078.539848,1680
1669285078.540932,1688
1669285078.542911,1693
1669285078.5728889,1690
1669285078.5738893,1694
1669285078.5748503,1700
1669285078.5978868,1705
1669285078.5989003,1707
1669285078.6228516,1712
1669285078.623847,1718
1669285078.6248467,1717
1669285078.6728468,1714
1669285078.673862,1707
1669285078.6748476,1701
1669285078.6758673,1694
1669285078.6778507,1681
1669285078.6978543,1669
1669285078.6988626,1656
1669285078.7228603,1644
1669285078.7478533,1660
1669285078.7488654,1704
1669285078.7728791,1786
1669285078.7818625,2250
1669285078.7978473,2449
1669285078.8238475,2931
1669285078.8478477,2998
1669285078.8488464,3003
1669285078.8738472,2696
1669285078.8978462,2522
1669285078.8988473,2328
1669285078.8998477,2130
1669285078.9228532,1946
1669285078.9238517,1788
1669285078.9478476,1654
1669285078.9728525,1438
1669285078.9818468,1410
1669285078.997847,1398
1669285078.9988525,1395
1669285079.0228786,1403
1669285079.0238564,1424
1669285079.0248473,1461
1669285079.0478463,1510
1669285079.0728476,1571
1669285079.0738485,1642
1669285079.074921,1715
1669285079.097847,1786
1669285079.0988789,1851
1669285079.0998776,1902
1669285079.1228507,1935
1669285079.123849,1949
1669285079.1608484,1918
1669285079.1788485,1886
1669285079.179849,1846
1669285079.202861,1664
1669285079.2228482,1626
1669285079.2238598,1595
1669285079.2478461,1573
1669285079.248848,1558
1669285079.2728462,1553
1669285079.2988496,1559
1669285079.3048487,1567
1669285079.322846,1577
1669285079.3238537,1588
1669285079.3478465,1597
1669285079.3488479,1604
1669285079.3738499,1629
1669285079.397847,1635
1669285079.3988483,1644
1669285079.447847,1639
1669285079.4488475,1643
1669285079.4728458,1647
1669285079.4738476,1653
1669285079.4748464,1659
1669285079.4978466,1663
1669285079.4988468,1666
1669285079.5228515,1666
1669285079.5238478,1666
1669285079.5478463,1664
1669285079.5488796,1663
1669285079.5498788,1665
1669285079.5548532,1667
1669285079.5728471,1662
1669285079.573901,1650
1669285079.5978463,1638
1669285079.5988853,1625
1669285079.6228554,1618
1669285079.6238515,1615
1669285079.6248512,1611
1669285079.647848,1609
1669285079.648878,1615
1669285079.6728473,1628
1669285079.673849,1659
1669285079.674921,1718
1669285079.697851,1817
1669285079.6988804,1964
1669285079.7228544,2155
1669285079.7238572,2372
1669285079.7248502,2595
1669285079.7478468,2800
1669285079.7488735,2965
1669285079.772847,3073
1669285079.7739046,3116
1669285079.774896,3092
1669285079.822854,3008
1669285079.8238502,2873
1669285079.824854,2707
1669285079.825857,2518
1669285079.8278477,2325
1669285079.8478482,2136
1669285079.8488786,1965
1669285079.8728466,1815
1669285079.8738806,1686
1669285079.8749013,1582
1669285079.8978455,1506
1669285079.8988762,1453
1669285079.9268463,1420
1669285079.9278824,1400
1669285079.9289217,1393
1669285079.9478471,1402
1669285079.948882,1426
1669285079.9728463,1461
1669285079.9738972,1508
1669285079.974902,1563
1669285079.9978452,1630
1669285079.9988763,1701
1669285080.0228465,1774
1669285080.0238578,1835
1669285080.0248501,1882
1669285080.0478468,1916
1669285080.0738668,1916
1669285080.0748923,1892
1669285080.0978477,1862
1669285080.098848,1822
1669285080.1228533,1781
1669285080.1278498,1738
1669285080.1478477,1695
1669285080.1748486,1577
1669285080.1768553,1551
1669285080.1778462,1529
1669285080.1978493,1510
1669285080.1988478,1496
1669285080.2228463,1487
1669285080.2238512,1484
1669285080.2488484,1523
1669285080.2728453,1542
1669285080.2738616,1561
1669285080.2748458,1580
1669285080.2978468,1600
1669285080.2988477,1616
1669285080.3228495,1625
1669285080.3478503,1657
1669285080.3488789,1664
1669285080.3548555,1677
1669285080.3728487,1688
1669285080.3738527,1691
1669285080.397849,1692
1669285080.3988478,1688
1669285080.4228492,1684
1669285080.4238536,1680
1669285080.4248476,1677
1669285080.462924,1678
1669285080.4729173,1678
1669285080.4739213,1681
1669285080.49785,1681
1669285080.4988782,1678
1669285080.499878,1674
1669285080.5018497,1670
1669285080.5228508,1662
1669285080.5238538,1655
1669285080.5248468,1651
1669285080.5478475,1649
1669285080.5748498,1631
1669285080.5978475,1623
1669285080.5988522,1610
1669285080.6228511,1605
1669285080.6238525,1609
1669285080.6248517,1629
1669285080.6478484,1679
1669285080.6488738,1768
1669285080.6728885,1904
1669285080.673901,2083
1669285080.6749012,2294
1669285080.6978486,2515
1669285080.6988823,2724
1669285080.7228467,2903
1669285080.7478504,3104
1669285080.7488499,3048
1669285080.7758532,2938
1669285080.797846,2782
1669285080.8228507,2209
1669285080.8238502,2028
1669285080.8248546,1859
1669285080.8258522,1720
1669285080.84785,1618
1669285080.8488488,1546
1669285080.8728483,1500
1669285080.873848,1472
1669285080.8748498,1457
1669285080.8978539,1454
1669285080.8988492,1464
1669285080.9228876,1486
1669285080.9238496,1519
1669285080.9248471,1563
1669285080.947847,1621
1669285080.9488523,1691
1669285080.9728465,1766
1669285080.9738455,1835
1669285080.9749022,1895
1669285080.9978485,1948
1669285080.9988806,1986
1669285081.0228503,2012
1669285081.023849,2024
1669285081.0248463,2017
1669285081.047846,1996
1669285081.0488822,1966
1669285081.0728478,1924
1669285081.0739014,1879
1669285081.0749016,1831
1669285081.102888,1783
1669285081.1038485,1732
1669285081.104889,1685
1669285081.1228495,1646
1669285081.1238613,1607
1669285081.147847,1575
1669285081.1488879,1550
1669285081.1729283,1537
1669285081.197849,1537
1669285081.1988492,1543
1669285081.222852,1551
1669285081.2238503,1563
1669285081.2248495,1575
1669285081.225856,1586
1669285081.2278755,1604
1669285081.2478478,1623
1669285081.2488778,1641
1669285081.272928,1657
1669285081.273937,1675
1669285081.2749445,1691
1669285081.2978485,1706
1669285081.298881,1717
1669285081.3228495,1725
1669285081.3238537,1729
1669285081.3248537,1732
1669285081.3478494,1737
1669285081.348881,1740
1669285081.3728802,1739
1669285081.3738563,1738
1669285081.374945,1736
1669285081.3978457,1736
1669285081.4028604,1737
1669285081.4038475,1746
1669285081.447863,1759
1669285081.4488506,1751
1669285081.4728844,1741
1669285081.4738894,1728
1669285081.4978492,1716
1669285081.49988,1708
1669285081.5079432,1699
1669285081.5478828,1677
1669285081.5488493,1683
1669285081.572908,1701
1669285081.5739074,1736
1669285081.5749083,1804
1669285081.5978472,1914
1669285081.6248496,2467
1669285081.6248496,2679
1669285081.6478496,2867
1669285081.6738455,3121
1669285081.6749015,3079
1669285081.6978483,2982
1669285081.6988804,2837
1669285081.742902,2663
1669285081.7439003,2475
1669285081.7449007,2288
1669285081.7468462,2110
1669285081.772907,1948
1669285081.773908,1808
1669285081.776845,1697
1669285081.7978501,1615
1669285081.7988486,1557
1669285081.7998486,1517
1669285081.8228517,1493
1669285081.823848,1480
1669285081.84885,1534
1669285081.8728814,1581
1669285081.8978744,1788
1669285081.8988795,1867
1669285081.9278505,1943
1669285081.9488518,2088
1669285081.972865,2078
1669285081.9988506,1926
1669285082.0228484,1879
1669285082.0238478,1836
1669285082.024851,1797
1669285082.0478463,1766
1669285082.0488462,1734
1669285082.0728452,1702
1669285082.0738533,1672
1669285082.0978475,1651
1669285082.0988464,1641
1669285082.099846,1636
1669285082.1228492,1632
1669285082.1238563,1623
1669285082.1478848,1619
1669285082.148884,1619
1669285082.1498485,1624
1669285082.1728492,1629
1669285082.173915,1636
1669285082.19788,1645
1669285082.198883,1657
1669285082.1998773,1671
1669285082.2228568,1688
1669285082.223847,1706
1669285082.2248487,1724
1669285082.2478862,1740
1669285082.2488835,1753
1669285082.2729115,1762
1669285082.2739077,1769
1669285082.2768455,1775
1669285082.297881,1782
1669285082.298882,1783
1669285082.3228502,1781
1669285082.3238509,1778
1669285082.3248491,1773
1669285082.3478813,1767
1669285082.3488815,1757
1669285082.3789165,1747
1669285082.379847,1738
1669285082.3818526,1738
1669285082.39788,1753
1669285082.3988752,1789
1669285082.422849,1855
1669285082.4238522,1951
1669285082.4248524,2081
1669285082.4478781,2240
1669285082.4588523,2415
1669285082.4728463,2592
1669285082.4738472,2744
1669285082.4749074,2861
1669285082.497881,2929
1669285082.4988818,2941
1669285082.5228534,2893
1669285082.5238516,2790
1669285082.5248563,2651
1669285082.547883,2485
1669285082.5488818,2310
1669285082.5729225,2140
1669285082.5739021,1979
1669285082.574902,1836
1669285082.5978806,1716
1669285082.5988808,1623
1669285082.625856,1476
1669285082.6478798,1458
1669285082.648881,1453
1669285082.672849,1461
1669285082.6738782,1481
1669285082.6748464,1516
1669285082.6978636,1566
1669285082.6988757,1630
1669285082.7228508,1706
1669285082.727847,1787
1669285082.7478807,1865
1669285082.7488842,1937
1669285082.7498808,2000
1669285082.7749026,2051
1669285082.7768483,2081
1669285082.7779074,2091
1669285082.8228574,2008
1669285082.8238566,1956
1669285082.826848,1903
1669285082.8478518,1849
1669285082.8488503,1798
1669285082.8738465,1757
1669285082.8748803,1722
1669285082.8988745,1656
1669285082.922849,1647
1669285082.923854,1644
1669285082.9498472,1647
1669285082.9748533,1650
1669285083.0188513,1673
1669285083.01985,1689
1669285083.021852,1706
1669285083.072849,1749
1669285083.0738518,1752
1669285083.0748513,1759
1669285083.0978541,1766
1669285083.0988472,1771
1669285083.122852,1776
1669285083.1238484,1776
1669285083.1248477,1785
1669285083.147851,1800
1669285083.1488552,1832
1669285083.1728482,1897
1669285083.1738489,1998
1669285083.1758478,2138
1669285083.1978478,2309
1669285083.248852,2815
1669285083.2498522,2923
1669285083.2518477,2978
1669285083.273849,2843
1669285083.274849,2714
1669285083.297859,2562
1669285083.2988558,2390
1669285083.3228621,2212
1669285083.323864,2034
1669285083.3478472,1878
1669285083.3738506,1531
1669285083.3748496,1499
1669285083.3978498,1484
1669285083.3988566,1482
1669285083.4228532,1494
1669285083.4238477,1513
1669285083.4488506,1654
1669285083.4728546,1723
1669285083.4738615,1792
1669285083.4788468,1860
1669285083.497854,1924
1669285083.5228496,1982
1669285083.5238504,2031
1669285083.5268462,2065
1669285083.5478466,2083
1669285083.5488482,2082
1669285083.549848,2062
1669285083.5728612,2031
1669285083.5738606,1988
1669285083.574859,1939
1669285083.6018498,1890
1669285083.6028793,1838
1669285083.622848,1787
1669285083.6238556,1740
1669285083.6248484,1700
1669285083.658853,1669
1669285083.659852,1645
1669285083.6618466,1626
1669285083.6729214,1613
1669285083.7018461,1606
1669285083.7028794,1602
1669285083.7038834,1600
1669285083.7228508,1607
1669285083.723851,1620
1669285083.7258546,1634
1669285083.7478786,1646
1669285083.7488835,1657
1669285083.772915,1669
1669285083.773921,1681
1669285083.797882,1694
1669285083.7988813,1711
1669285083.7998824,1725
1669285083.8228471,1738
1669285083.8238482,1746
1669285083.8478854,1755
1669285083.8488855,1757
1669285083.8498785,1762
1669285083.8728786,1765
1669285083.8739223,1767
1669285083.8978827,1769
1669285083.898883,1773
1669285083.8998516,1782
1669285083.9228482,1799
1669285083.9238615,1835
1669285083.9478467,1902
1669285083.9488602,2005
1669285083.9498463,2153
1669285083.9728787,2336
1669285083.9739087,2536
1669285083.9749079,2737
1669285083.9978802,2919
1669285083.9988763,3063
1669285084.022846,3150
1669285084.0238485,3172
1669285084.0248482,3130
1669285084.0478837,3037
1669285084.048883,2902
1669285084.072908,2736
1669285084.0978491,2173
1669285084.0988467,1994
1669285084.122851,1839
1669285084.123852,1716
1669285084.1478856,1632
1669285084.148909,1579
1669285084.1498523,1553
1669285084.1748483,1550
1669285084.1978483,1573
1669285084.1988487,1605
1669285084.2488472,1746
1669285084.2738502,1981
1669285084.2988503,2023
1669285084.2998471,2054
1669285084.324852,2071
1669285084.3288455,2047
1669285084.3478456,2007
1669285084.348854,1960
1669285084.3728538,1908
1669285084.3738527,1854
1669285084.3978465,1803
1669285084.422849,1690
1669285084.4238608,1664
1669285084.424853,1648
1669285084.447846,1640
1669285084.448849,1635
1669285084.4728532,1637
1669285084.4738524,1644
1669285084.498851,1675
1669285084.5228617,1687
1669285084.523853,1703
1669285084.5988474,1751
1669285084.6228528,1754
1669285084.6238546,1761
1669285084.6498494,1782
1669285084.6728542,1788
1669285084.6738503,1785
1669285084.697854,1780
1669285084.6988482,1777
1669285084.699853,1771
1669285084.7228508,1769
1669285084.7238462,1764
1669285084.7478454,1758
1669285084.7488458,1754
1669285084.7498512,1765
1669285084.772853,1801
1669285084.7738523,1873
1669285084.797846,1992
1669285084.798846,2158
1669285084.7998486,2365
1669285084.8228476,2591
1669285084.8238509,2815
1669285084.8478773,3008
1669285084.8488784,3158
1669285084.8738816,3229
1669285084.8978777,3122
1669285084.898879,2968
1669285084.8998537,2782
1669285084.938883,2578
1669285084.9398825,2368
1669285084.9418461,2174
1669285084.9508822,1997
1669285084.9728467,1853
1669285084.9739206,1746
1669285084.9749238,1673
1669285084.9978802,1625
1669285084.9988782,1599
1669285084.9998488,1593
1669285085.022852,1597
1669285085.0238545,1608
1669285085.0478806,1629
1669285085.0488827,1658
1669285085.0498576,1691
1669285085.0729074,1726
1669285085.0738475,1766
1669285085.0978777,1814
1669285085.0988789,1865
1669285085.0998785,1916
1669285085.1228473,1964
1669285085.123854,2004
1669285085.1478806,2033
1669285085.1488826,2047
1669285085.1498666,2050
1669285085.1749034,2038
1669285085.1768913,2011
1669285085.1779144,1976
1669285085.1978762,1934
1669285085.198849,1882
1669285085.2478807,1729
1669285085.248884,1687
1669285085.2498837,1652
1669285085.2828526,1601
1669285085.2978494,1600
1669285085.2988505,1602
1669285085.3228695,1608
1669285085.3238516,1620
1669285085.3478758,1629
1669285085.3488812,1639
1669285085.3498514,1655
1669285085.3729098,1674
1669285085.3739083,1693
1669285085.3978763,1709
1669285085.3988822,1722
1669285085.422849,1732
1669285085.4478803,1742
1669285085.4488785,1751
1669285085.4498608,1760
1669285085.4728837,1793
1669285085.4739077,1806
1669285085.4978535,1815
1669285085.5228515,1809
1669285085.53688,1806
1669285085.549851,1801
1669285085.578857,1795
1669285085.5798483,1787
1669285085.6228495,1758
1669285085.6238513,1746
1669285085.647853,1749
1669285085.648852,1770
1669285085.6498508,1826
1669285085.6728523,1933
1669285085.6998491,2543
1669285085.701853,2780
1669285085.7228498,3000
1669285085.7238512,3170
1669285085.7478478,3285
1669285085.7488496,3331
1669285085.7498503,3308
1669285085.7728562,3224
1669285085.797878,3083
1669285085.7988698,2897
1669285085.8228507,2685
1669285085.8238502,2460
1669285085.8248498,2245
1669285085.8268497,2046
1669285085.847878,1872
1669285085.8488836,1734
1669285085.8738503,1543
1669285085.89785,1536
1669285085.8988504,1544
1669285085.9238477,1611
1669285085.9478517,1647
1669285085.948855,1697
1669285085.94988,1755
1669285085.9728796,1819
1669285085.9739044,1881
1669285085.9978786,1935
1669285086.0238545,2063
1669285086.0478492,2061
1669285086.0488522,2047
1669285086.049848,2023
1669285086.0728478,1990
1669285086.0738485,1947
1669285086.0998473,1776
1669285086.1228516,1724
1669285086.1238594,1681
1669285086.1728487,1587
1669285086.173848,1582
1669285086.218852,1581
1669285086.2198539,1586
1669285086.224847,1603
1669285086.2478492,1675
1669285086.2488506,1694
1669285086.2728584,1711
1669285086.297846,1727
1669285086.2988482,1740
1669285086.2998471,1752
1669285086.3018453,1761
1669285086.3028474,1768
1669285086.3228538,1772
1669285086.3238504,1776
1669285086.3478465,1781
1669285086.3488462,1788
1669285086.349847,1802
1669285086.3728495,1815
1669285086.373857,1825
1669285086.3978777,1831
1669285086.3988545,1838
1669285086.399883,1843
1669285086.4228513,1844
1669285086.42385,1838
1669285086.4478836,1831
1669285086.4488475,1823
1669285086.4498785,1813
1669285086.472902,1803
1669285086.4738827,1792
1669285086.4978778,1779
1669285086.4988785,1764
1669285086.4998786,1757
1669285086.5231647,1753
1669285086.5241656,1752
1669285086.5481613,1758
1669285086.5491698,1781
1669285086.5501761,1828
1669285086.5732327,1914
1669285086.5742602,2048
1669285086.598163,2231
1669285086.5991998,2446
1669285086.6002014,2674
1669285086.6231651,2892
1669285086.6241634,3075
1669285086.651173,3270
1669285086.6731615,3205
1669285086.6981618,3085
1669285086.6991909,2920
1669285086.7001681,2721
1669285086.7011914,2505
1669285086.7231622,2291
1669285086.7241673,2089
1669285086.7481627,1912
1669285086.749168,1762
1669285086.7601893,1648
1669285086.773163,1562
1669285086.7991726,1447
1669285086.8001652,1440
1669285086.8231647,1453
1669285086.8242047,1485
1669285086.859164,1534
1669285086.8641791,1596
1669285086.8651886,1673
1669285086.8981626,1919
1669285086.8991644,1981
1669285086.9001682,2034
1669285086.9231665,2075
1669285086.924164,2100
1669285086.948162,2107
1669285086.9491634,2096
1669285086.974163,1987
1669285086.9981673,1931
1669285086.999173,1873
1669285087.0001705,1818
1669285087.0231655,1766
1669285087.0241652,1717
1669285087.048167,1679
1669285087.073166,1594
1669285087.0741668,1581
1669285087.0981667,1578
1669285087.1231666,1579
1669285087.1241653,1585
1669285087.148164,1594
1669285087.1491644,1611
1669285087.1501718,1626
1669285087.1511638,1641
1669285087.153168,1660
1669285087.17517,1679
1669285087.1761622,1693
1669285087.223164,1756
1669285087.2241673,1772
1669285087.2481637,1788
1669285087.2491636,1800
1669285087.2501714,1811
1669285087.2731671,1820
1669285087.2991648,1801
1669285087.3001647,1786
1669285087.3231647,1773
1669285087.3241675,1764
1669285087.3481882,1760
1669285087.3492022,1755
1669285087.3511734,1752
1669285087.3732147,1749
1669285087.3741653,1748
1669285087.39819,1750
1669285087.3991983,1759
1669285087.4011683,1791
1669285087.423163,1852
1669285087.4241645,1954
1669285087.4481637,2103
1669285087.4491956,2290
1669285087.4732156,2499
1669285087.5031621,2707
1669285087.5041971,2892
1669285087.5052247,3029
1669285087.5061986,3109
1669285087.5082195,3125
1669285087.523162,3079
1669285087.5241637,2977
1669285087.5481622,2829
1669285087.5491993,2647
1669285087.550196,2449
1669285087.573234,2251
1669285087.5742183,2064
1669285087.5981903,1898
1669285087.5992014,1757
1669285087.6001935,1641
1669285087.6231637,1554
1669285087.6241658,1493
1669285087.6481855,1460
1669285087.6491742,1448
1669285087.6501665,1456
1669285087.6732347,1477
1669285087.6741793,1510
1669285087.6981916,1552
1669285087.6992018,1615
1669285087.700203,1698
1669285087.7231653,1788
1669285087.7241652,1879
1669285087.748191,1965
1669285087.7492,2043
1669285087.7732403,2109
1669285087.774199,2161
1669285087.775232,2202
1669285087.7972004,2219
1669285087.8031719,2211
1669285087.8041646,2183
1669285087.8231676,2139
1669285087.8241646,2085
1669285087.8481915,2028
1669285087.8491988,1970
1669285087.850204,1912
1669285087.8732226,1856
1669285087.8741636,1803
1669285087.8981633,1760
1669285087.8991635,1723
1669285087.9231641,1694
1669285087.924163,1675
1669285087.9251642,1665
1669285087.948169,1657
1669285087.9491694,1652
1669285087.950168,1650
1669285087.97323,1657
1669285087.974164,1666
1669285087.998202,1676
1669285087.9992023,1688
1669285088.0002036,1704
1669285088.0231652,1716
1669285088.0241647,1728
1669285088.0481956,1739
1669285088.0491953,1753
1669285088.0502017,1769
1669285088.0732305,1780
1669285088.0742166,1787
1669285088.0982027,1793
1669285088.1402223,1803
1669285088.1411972,1808
1669285088.1431656,1813
1669285088.1441905,1818
1669285088.1731615,1832
1669285088.1751618,1865
1669285088.1981647,1929
1669285088.199203,2034
1669285088.2001677,2178
1669285088.201164,2354
1669285088.2261624,2545
1669285088.2281623,2734
1669285088.273162,3093
1669285088.2741702,3107
1669285088.2751682,3064
1669285088.2981665,2971
1669285088.2991645,2834
1669285088.3001692,2674
1669285088.323164,2495
1669285088.3491642,1969
1669285088.3501678,1828
1669285088.3731658,1712
1669285088.3991654,1485
1669285088.40017,1456
1669285088.4231675,1444
1669285088.4241655,1452
1669285088.4481661,1483
1669285088.4491677,1539
1669285088.4731662,1612
1669285088.4981732,1901
1669285088.5231624,2004
1669285088.5241773,2097
1669285088.525166,2174
1669285088.526165,2233
1669285088.5491686,2274
1669285088.5501716,2291
1669285088.5741634,2218
1669285088.598164,2164
1669285088.5991652,2104
1669285088.6001651,2040
1669285088.6231644,1973
1669285088.6241674,1901
1669285088.6501663,1836
1669285088.674163,1691
1669285088.698197,1691
1669285088.7241647,1718
1669285088.7471669,1725
1669285088.75317,1727
1669285088.7541702,1725
1669285088.779199,1723
1669285088.780198,1720
1669285088.800204,1739
1669285088.8231637,1753
1669285088.8241653,1768
1669285088.8481927,1784
1669285088.8491929,1798
1669285088.857163,1819
1669285088.8731637,1863
1669285088.8742168,1946
1669285088.8981695,2081
1669285088.8991997,2263
1669285088.9231637,2483
1669285088.9241674,2727
1669285088.9251668,2968
1669285088.9482005,3178
1669285088.9561665,3333
1669285088.9731638,3418
1669285088.9981678,3432
1669285088.9991956,3376
1669285089.0002015,3256
1669285089.0011637,3086
1669285089.0062497,2884
1669285089.0231671,2668
1669285089.0241642,2451
1669285089.048203,2242
1669285089.0492015,2050
1669285089.0501668,1889
1669285089.0731988,1757
1669285089.0742235,1657
1669285089.0981643,1590
1669285089.099164,1546
1669285089.100204,1526
1669285089.1231635,1523
1669285089.124167,1532
1669285089.1481626,1560
1669285089.1491654,1603
1669285089.1501641,1659
1669285089.1732626,1719
1669285089.1742373,1789
1669285089.1981745,1866
1669285089.1991978,1948
1669285089.2002027,2028
1669285089.2231653,2098
1669285089.2241724,2152
1669285089.2481637,2184
1669285089.2491639,2194
1669285089.250169,2191
1669285089.2771635,2172
1669285089.278183,2136
1669285089.2801962,2090
1669285089.2981975,2036
1669285089.300201,1982
1669285089.3231676,1924
1669285089.3241634,1861
1669285089.373165,1708
1669285089.3741627,1674
1669285089.3753507,1647
1669285089.4191654,1625
1669285089.4201667,1611
1669285089.4211752,1600
1669285089.4231956,1594
1669285089.4491827,1631
1669285089.473166,1649
1669285089.4741669,1665
1669285089.4751656,1680
1669285089.4981663,1693
1669285089.4991655,1706
1669285089.5231655,1718
1669285089.548167,1760
1669285089.549165,1765
1669285089.5501645,1770
1669285089.5731704,1781
1669285089.5741727,1802
1669285089.598163,1846
1669285089.5991652,1931
1669285089.6241653,2487
1669285089.6481993,2734
1669285089.649167,2976
1669285089.6741655,3478
1669285089.6981628,3511
1669285089.7231667,3467
1669285089.7241669,3358
1669285089.7251642,3194
1669285089.7261622,2991
1669285089.748199,2765
1669285089.7732375,2093
1669285089.7742321,1920
1669285089.798197,1786
1669285089.799165,1686
1669285089.823168,1622
1669285089.824165,1583
1669285089.825162,1562
1669285089.8481672,1552
1669285089.849205,1549
1669285089.8731635,1556
1669285089.8742537,1572
1669285089.87526,1603
1669285089.8981988,1654
1669285089.8992033,1712
1669285089.9231658,1782
1669285089.9241707,1861
1669285089.9491704,2069
1669285089.973241,2112
1669285089.9742377,2140
1669285090.0231695,2119
1669285090.0241668,2077
1669285090.059165,1894
1669285090.0601642,1834
1669285090.0611677,1780
1669285090.0981672,1653
1669285090.0991669,1628
1669285090.123171,1611
1669285090.1241672,1602
1669285090.1251655,1601
1669285090.1481621,1606
1669285090.1491637,1616
1669285090.1731677,1624
1669285090.174169,1635
1669285090.175168,1649
1669285090.1981947,1665
1669285090.199205,1683
1669285090.2231643,1702
1669285090.2241652,1720
1669285090.225165,1732
1669285090.2481942,1744
1669285090.2491746,1755
1669285090.2731652,1762
1669285090.274231,1768
1669285090.2752316,1767
1669285090.2981682,1762
1669285090.2991717,1751
1669285090.3231654,1739
1669285090.3241644,1727
1669285090.325165,1718
1669285090.3481975,1712
1669285090.349202,1716
1669285090.373217,1738
1669285090.3742108,1787
1669285090.3752112,1878
1669285090.3981948,2019
1669285090.3992038,2215
1669285090.4231644,2446
1669285090.4241695,2698
1669285090.4251668,2941
1669285090.4481986,3149
1669285090.4491708,3303
1669285090.473232,3385
1669285090.474199,3390
1669285090.4752326,3327
1669285090.498202,3205
1669285090.4992058,3031
1669285090.5251987,2823
1669285090.5261648,2596
1669285090.5281954,2366
1669285090.5481997,2148
1669285090.549208,1953
1669285090.5732322,1792
1669285090.5742314,1666
1669285090.575232,1580
1669285090.598164,1529
1669285090.5992017,1498
1669285090.6231658,1484
1669285090.6241682,1486
1669285090.6291976,1499
1669285090.6481667,1521
1669285090.649205,1552
1669285090.6732254,1590
1669285090.6742375,1637
1669285090.6992018,1691
1669285090.7001677,1749
1669285090.7011979,1807
1669285090.723163,1863
1669285090.724165,1913
1669285090.7251909,1959
1669285090.7481997,1994
1669285090.7491732,2012
1669285090.7731626,2016
1669285090.774232,1999
1669285090.775232,1966
1669285090.7982018,1922
1669285090.8480852,1674
1669285090.8491158,1633
1669285090.8730757,1601
1669285090.8741288,1575
1669285090.8751295,1552
1669285090.898079,1536
1669285090.8991094,1524
1669285090.923074,1522
1669285090.9240766,1525
1669285090.9250739,1539
1669285090.94811,1557
1669285090.9490802,1577
1669285090.9731395,1601
1669285090.9741359,1620
1669285090.9990845,1660
1669285091.0230777,1672
1669285091.0240843,1687
1669285091.0490777,1718
1669285091.0731356,1721
1669285091.0741222,1726
1669285091.0751362,1726
1669285091.0980773,1727
1669285091.1230752,1723
1669285091.1240737,1717
1669285091.1250734,1706
1669285091.1481218,1696
1669285091.1491146,1692
1669285091.1501145,1693
1669285091.1731794,1698
1669285091.17418,1705
1669285091.1750917,1717
1669285091.198108,1750
1669285091.1991131,1816
1669285091.2480783,2508
1669285091.249083,2720
1669285091.3430824,2465
1669285091.3740768,1856
1669285091.3750753,1701
1669285091.3980784,1581
1669285091.399079,1490
1669285091.4230747,1426
1669285091.4240768,1388
1669285091.425075,1364
1669285091.4480736,1355
1669285091.4490812,1359
1669285091.473073,1379
1669285091.47408,1422
1669285091.4750743,1480
1669285091.4980736,1552
1669285091.505073,1633
1669285091.5230796,1725
1669285091.5240734,1819
1669285091.525074,1908
1669285091.5480752,1980
1669285091.5730803,2028
1669285091.5740812,2055
1669285091.5750802,2058
1669285091.5770745,2036
1669285091.598106,1994
1669285091.5990865,1938
1669285091.6233099,1876
1669285091.6243095,1808
1669285091.6253417,1743
1669285091.648314,1691
1669285091.649316,1651
1669285091.6753833,1622
1669285091.6763105,1599
1669285091.67831,1581
1669285091.698308,1566
1669285091.6993234,1551
1669285091.7233129,1544
1669285091.7243195,1544
1669285091.7253072,1549
1669285091.7483099,1552
1669285091.7493124,1553
1669285091.7733078,1554
1669285091.7743757,1552
1669285091.7753801,1551
1669285091.798312,1557
1669285091.79931,1567
1669285091.8233106,1579
1669285091.82431,1592
1669285091.8253472,1608
1669285091.8483148,1627
1669285091.849318,1646
1669285091.873337,1664
1669285091.874377,1679
1669285091.875376,1689
1669285091.8983428,1695
1669285091.8993526,1696
1669285091.9233108,1696
1669285091.9243126,1690
1669285091.92531,1692
1669285091.9483511,1707
1669285091.9493182,1752
1669285091.9793427,1834
1669285091.9803433,1951
1669285091.9983377,2108
1669285092.0233085,2288
1669285092.048314,2946
1669285092.0493152,2931
1669285092.0733826,2859
1669285092.07437,2740
1669285092.0753293,2586
1669285092.1013422,2409
1669285092.1033325,2221
1669285092.1043692,2034
1669285092.1233082,1861
1669285092.1243134,1707
1669285092.1483493,1574
1669285092.1493623,1469
1669285092.1733327,1391
1669285092.197311,1288
1669285092.203307,1291
1669285092.2043114,1317
1669285092.2483177,1507
1669285092.2493393,1595
1669285092.273367,1686
1669285092.2743623,1778
1669285092.2753093,1863
1669285092.2983377,1931
1669285092.299349,1978
1669285092.325313,2033
1669285092.3483083,2015
1669285092.349315,1979
1669285092.3733108,1934
1669285092.374313,1877
1669285092.375311,1822
1669285092.398335,1767
1669285092.4243107,1618
1669285092.425307,1582
1669285092.4483104,1554
1669285092.4493444,1537
1669285092.4733078,1535
1669285092.4983418,1541
1669285092.4993434,1552
1669285092.5003445,1563
1669285092.5253072,1573
1669285092.5263073,1581
1669285092.5283346,1588
1669285092.5293458,1597
1669285092.5483406,1608
1669285092.5493126,1617
1669285092.5733626,1624
1669285092.5743825,1630
1669285092.674308,1813
1669285092.6753085,1944
1669285092.6983106,2117
1669285092.6993117,2319
1669285092.7233145,2527
1669285092.74931,3021
1669285092.7733068,3001
1669285092.7743134,2919
1669285092.7753146,2790
1669285092.7983086,2627
1669285092.7993093,2437
1669285092.8233101,2242
1669285092.8243113,2048
1669285092.8253093,1869
1669285092.8483095,1713
1669285092.8493104,1588
1669285092.87337,1483
1669285092.8983433,1400
1669285092.899314,1338
1669285092.9003403,1298
1669285092.901347,1282
1669285092.9233117,1286
1669285092.92431,1310
1669285092.9253395,1349
1669285092.948347,1404
1669285092.949334,1470
1669285092.9733667,1551
1669285092.974377,1639
1669285092.9753387,1729
1669285092.9983418,1813
1669285092.999313,1885
1669285093.0233073,1941
1669285093.0243125,1982
1669285093.026316,2010
1669285093.0483458,2020
1669285093.049348,2009
1669285093.0734034,1981
1669285093.074402,1940
1669285093.0754018,1891
1669285093.0983498,1835
1669285093.099312,1774
1669285093.1233087,1718
1669285093.12431,1668
1669285093.1253068,1628
1669285093.1483636,1596
1669285093.1493504,1574
1669285093.1733677,1556
1669285093.174383,1546
1669285093.1753764,1547
1669285093.198347,1548
1669285093.1993093,1545
1669285093.2233086,1545
1669285093.2243433,1543
1669285093.2633288,1545
1669285093.2983437,1612
1669285093.2993462,1619
1669285093.300309,1628
1669285093.323308,1635
1669285093.3243105,1641
1669285093.3253126,1649
1669285093.348309,1663
1669285093.3493104,1678
1669285093.37536,1811
1669285093.3983114,1919
1669285093.3993282,2069
1669285093.4233098,2259
1669285093.4243164,2472
1669285093.4483457,2687
1669285093.4493093,2875
1669285093.4543097,3016
1669285093.455309,3099
1669285093.4733677,3115
1669285093.4983494,3067
1669285093.4993486,2958
1669285093.52531,2424
1669285093.52531,2221
1669285093.5483112,2032
1669285093.5493166,1864
1669285093.573311,1722
1669285093.574315,1603
1669285093.5983112,1510
1669285093.6233134,1390
1669285093.6243126,1390
1669285093.6253145,1405
1669285093.648314,1435
1669285093.649318,1471
1669285093.6733117,1515
1669285093.674311,1566
1669285093.69931,1755
1669285093.7233176,1822
1669285093.7243128,1882
1669285093.7253125,1934
1669285093.7483153,1977
1669285093.7763157,2008
1669285093.7783172,2023
1669285093.7793164,2019
1669285093.780311,1997
1669285093.79831,1962
1669285093.7993114,1913
1669285093.8228285,1855
1669285093.8498333,1641
1669285093.872826,1603
1669285093.8738265,1569
1669285093.8748264,1545
1669285093.9028335,1529
1669285093.903829,1520
1669285093.9278271,1539
1669285093.947827,1551
1669285093.9488268,1562
1669285093.972833,1576
1669285093.973831,1587
1669285093.998829,1599
1669285093.998829,1610
1669285094.0238285,1616
1669285094.0478265,1612
1669285094.0488281,1613
1669285094.050831,1616
1669285094.0728252,1623
1669285094.0738254,1630
1669285094.097825,1640
1669285094.098828,1660
1669285094.1008272,1687
1669285094.1478627,1737
1669285094.1488574,1821
1669285094.172859,1950
1669285094.177827,2770
1669285094.1788282,2950
1669285094.1978283,3083
1669285094.1988747,3165
1669285094.2228265,3183
1669285094.2238321,3137
1669285094.2258286,3032
1669285094.24783,2880
1669285094.2488284,2697
1669285094.272827,2501
1669285094.2738264,2305
1669285094.2758262,2114
1669285094.3008332,1940
1669285094.3018315,1791
1669285094.3228257,1673
1669285094.3238263,1583
1669285094.3258271,1518
1669285094.3478582,1474
1669285094.348826,1445
1669285094.372879,1429
1669285094.3738549,1423
1669285094.3758261,1435
1669285094.3978624,1461
1669285094.398865,1497
1669285094.4228294,1547
1669285094.4238284,1611
1669285094.4258244,1678
1669285094.4478624,1746
1669285094.4498286,1806
1669285094.4728987,1858
1669285094.473857,1897
1669285094.4978619,1922
1669285094.4988291,1934
1669285094.5008674,1934
1669285094.5398278,1921
1669285094.5409195,1893
1669285094.5419238,1855
1669285094.5428283,1806
1669285094.5729353,1752
1669285094.5739002,1698
1669285094.575901,1649
1669285094.5979028,1602
1669285094.6240854,1566
1669285094.62511,1536
1669285094.6271183,1516
1669285094.6281197,1507
1669285094.6481228,1506
1669285094.6730845,1541
1669285094.6741478,1557
1669285094.6760828,1570
1669285094.69809,1577
1669285094.6990888,1582
1669285094.7230866,1586
1669285094.728117,1594
1669285094.7291176,1606
1669285094.7481177,1618
1669285094.7490928,1628
1669285094.7731407,1640
1669285094.7741375,1646
1669285094.799089,1659
1669285094.823085,1667
1669285094.848085,1709
1669285094.8490872,1722
1669285094.873145,1729
1669285094.8981218,1735
1669285094.8991284,1720
1669285094.923088,1706
1669285094.9240851,1691
1669285094.9481244,1682
1669285094.94909,1679
1669285094.9500904,1675
1669285094.998087,1741
1669285094.9990895,1841
1669285095.0000942,1998
1669285095.023085,2200
1669285095.0240822,2427
1669285095.048091,2662
1669285095.049088,2878
1669285095.0741181,3218
1669285095.0980957,3205
1669285095.0990884,3131
1669285095.10009,3003
1669285095.143087,2838
1669285095.143087,2644
1669285095.1520834,2443
1669285095.179086,1905
1669285095.1800866,1770
1669285095.182085,1665
1669285095.198093,1594
1669285095.19912,1544
1669285095.2230844,1515
1669285095.2240841,1498
1669285095.248086,1492
1669285095.2490828,1500
1669285095.250085,1519
1669285095.2731636,1556
1669285095.2741618,1609
1669285095.3231063,1867
1669285095.324105,1918
1669285095.3481088,1959
1669285095.3491364,1989
1669285095.3501148,2004
1669285095.373156,2004
1669285095.3991046,1915
1669285095.4011033,1877
1669285095.4231017,1839
1669285095.4741395,1669
1669285095.4761007,1638
1669285095.4771037,1618
1669285095.4981058,1602
1669285095.499109,1593
1669285095.5001042,1592
1669285095.5231006,1594
1669285095.5240996,1599
1669285095.5481071,1601
1669285095.5491092,1606
1669285095.550108,1616
1669285095.5731635,1630
1669285095.5741618,1641
1669285095.5981412,1652
1669285095.5991416,1661
1669285095.6001348,1666
1669285095.6231053,1668
1669285095.6241012,1673
1669285095.6481006,1680
1669285095.6491024,1683
1669285095.650107,1681
1669285095.6731284,1680
1669285095.6741648,1681
1669285095.6981344,1685
1669285095.6991384,1691
1669285095.722504,1700
1669285095.7485764,1714
1669285095.7495804,1725
1669285095.7505777,1737
1669285095.7515805,1750
1669285095.7535837,1756
1669285095.7731578,1756
1669285095.774155,1748
1669285095.8191092,1737
1669285095.820096,1726
1669285095.8220966,1715
1669285095.823095,1702
1669285095.824129,1691
1669285095.8480988,1680
1669285095.849095,1671
1669285095.8500998,1659
1669285095.8761094,1653
1669285095.877127,1646
1669285095.878128,1644
1669285095.8981316,1646
1669285095.8990917,1649
1669285095.9230952,1662
1669285095.9241278,1681
1669285095.9481502,1718
1669285095.949101,1790
1669285095.9500952,1908
1669285095.9731946,2070
1669285095.9750946,2265
1669285095.998134,2478
1669285095.9991276,2689
1669285096.000127,2877
1669285096.048119,3114
1669285096.049129,3066
1669285096.0511,2963
1669285096.0981197,2441
1669285096.0990968,2238
1669285096.1001134,2044
1669285096.123094,1868
1669285096.1241038,1719
1669285096.1481,1595
1669285096.149099,1493
1669285096.174094,1327
1669285096.1980984,1315
1669285096.1991029,1324
1669285096.2000992,1352
1669285096.223099,1398
1669285096.2240927,1458
1669285096.248092,1532
1669285096.2730916,1782
1669285096.2740915,1857
1669285096.2981346,1925
1669285096.2990944,1976
1669285096.3000956,2016
1669285096.3231277,2044
1669285096.3481286,2059
1669285096.3490977,2055
1669285096.3500986,2038
1669285096.352106,2008
1669285096.373167,1968
1669285096.374166,1918
1669285096.400114,1767
1669285096.4071393,1727
1669285096.4231079,1695
1669285096.4591074,1666
1669285096.4601371,1644
1669285096.4621134,1627
1669285096.4631395,1619
1669285096.4981515,1617
1669285096.4991393,1615
1669285096.500148,1617
1669285096.5021887,1620
1669285096.5231078,1628
1669285096.5241375,1638
1669285096.548114,1651
1669285096.5491066,1662
1669285096.550109,1671
1669285096.5732045,1677
1669285096.574109,1678
1669285096.5981457,1681
1669285096.5991392,1691
1669285096.6001441,1703
1669285096.6231053,1713
1669285096.6241047,1721
1669285096.6481457,1730
1669285096.649112,1738
1669285096.6741226,1744
1669285096.6981263,1749
1669285096.6991065,1747
1669285096.7251077,1740
1669285096.7481074,1740
1669285096.7491314,1748
1669285096.7501087,1770
1669285096.77314,1815
1669285096.7741585,1891
1669285096.7981374,2004
1669285096.8291075,2477
1669285096.830122,2619
1669285096.8481112,2727
1669285096.8732297,2769
1669285096.8742363,2691
1669285096.8981774,2579
1669285096.8991766,2447
1669285096.900177,2303
1669285096.9231777,2155
1669285096.9241772,2009
1669285096.948181,1872
1669285096.9491796,1753
1669285096.9501805,1652
1669285096.9732294,1567
1669285096.9741776,1500
1669285096.9981773,1453
1669285096.9991753,1424
1669285097.0001774,1409
1669285097.023177,1402
1669285097.024176,1412
1669285097.0481775,1445
1669285097.0491755,1496
1669285097.050179,1565
1669285097.0732439,1650
1669285097.074243,1740
1669285097.0992146,1831
1669285097.1001778,1917
1669285097.1022394,1991
1669285097.1231759,2048
1669285097.124217,2080
1669285097.173237,2095
1669285097.1742437,2097
1669285097.1751757,2085
1669285097.1772127,2063
1669285097.1781762,2030
1669285097.1981747,1993
1669285097.199214,1949
1669285097.2011757,1902
1669285097.2231796,1854
1669285097.2242115,1807
1669285097.2481954,1770
1669285097.249182,1741
1669285097.2501762,1718
1669285097.2732825,1700
1669285097.274181,1682
1669285097.2982135,1667
1669285097.29921,1657
1669285097.3002152,1650
1669285097.3231769,1644
1669285097.3242092,1642
1669285097.3482263,1640
1669285097.3491821,1634
1669285097.3501818,1631
1669285097.3732772,1630
1669285097.3742762,1632
1669285097.4001772,1663
1669285097.4231768,1670
1669285097.4241788,1677
1669285097.4501784,1691
1669285097.4732654,1695
1669285097.474272,1702
1669285097.4981773,1722
1669285097.4992268,1760
1669285097.5001786,1825
1669285097.5231774,1926
1669285097.5772085,2634
1669285097.5781794,2802
1669285097.5832314,2928
1669285097.5981793,3008
1669285097.5992131,3033
1669285097.600184,2996
1669285097.623183,2913
1669285097.624174,2783
1669285097.6481779,2625
1669285097.6491795,2450
1669285097.6501827,2274
1669285097.6732357,2105
1669285097.6741745,1948
1669285097.698194,1817
1669285097.699227,1710
1669285097.7401757,1516
1669285097.7421932,1484
1669285097.7432036,1470
1669285097.7731752,1471
1669285097.7741742,1487
1669285097.7751753,1517
1669285097.7982163,1560
1669285097.7992105,1611
1669285097.8002279,1676
1669285097.823177,1751
1669285097.8241804,1824
1669285097.848209,1893
1669285097.874178,2069
1669285097.8982105,2078
1669285097.899214,2070
1669285097.9002109,2044
1669285097.9231791,2007
1669285097.9241788,1964
1669285097.948177,1925
1669285097.9491768,1884
1669285097.9501767,1843
1669285097.9731753,1804
1669285097.974176,1767
1669285098.0022116,1732
1669285098.0032153,1703
1669285098.0041757,1680
1669285098.0231788,1663
1669285098.0491827,1633
1669285098.0732284,1632
1669285098.0751762,1633
1669285098.1001768,1636
1669285098.1022067,1639
1669285098.123176,1645
1669285098.1241775,1654
1669285098.1482193,1664
1669285098.1492124,1674
1669285098.1501842,1680
1669285098.1732502,1683
1669285098.1741762,1687
1669285098.1982095,1688
1669285098.1992126,1691
1669285098.2001786,1702
1669285098.22321,1716
1669285098.224176,1723
1669285098.248207,1728
1669285098.249179,1738
1669285098.2501802,1761
1669285098.2732685,1814
1669285098.2741838,1908
1669285098.2982106,2045
1669285098.29921,2222
1669285098.3002152,2428
1669285098.323174,2639
1669285098.3241751,2834
1669285098.3482134,2994
1669285098.3491888,3102
1669285098.3501945,3152
1669285098.3792222,3141
1669285098.3811898,3073
1669285098.382226,2956
1669285098.3982215,2802
1669285098.3992238,2624
1669285098.4232152,2438
1669285098.424187,2250
1669285098.448225,2068
1669285098.4491916,1903
1669285098.454189,1764
1669285098.473261,1655
1669285098.4981883,1576
1669285098.499224,1524
1669285098.5241854,1492
1669285098.52519,1481
1669285098.527224,1486
1669285098.5352247,1499
1669285098.5482252,1526
1669285098.549204,1566
1669285098.5501933,1614
1669285098.5732625,1665
1669285098.5742178,1722
1669285098.5982208,1787
1669285098.5992258,1853
1669285098.6001885,1916
1669285098.6232271,1970
1669285098.624187,2012
1669285098.6302145,2041
1669285098.6482272,2057
1669285098.6502216,2062
1669285098.698174,2006
1669285098.6992052,1969
1669285098.7001717,1926
1669285098.748209,1785
1669285098.7492068,1743
1669285098.7502053,1705
1669285098.7732396,1673
1669285098.7741716,1648
1669285098.798228,1628
1669285098.7991726,1608
1669285098.8241715,1583
1669285098.8482053,1589
1669285098.849209,1596
1669285098.8502214,1601
1669285098.8731697,1606
1669285098.8741796,1612
1669285098.8981686,1623
1669285098.9231713,1664
1669285098.92417,1677
1669285098.9481783,1690
1669285098.9731698,1726
1669285098.9741714,1733
1669285099.0191727,1740
1669285099.0201702,1745
1669285099.0221775,1750
1669285099.0231707,1756
1669285099.0241723,1757
1669285099.052168,1755
1669285099.0531776,1751
1669285099.0541751,1749
1669285099.0731747,1749
1669285099.0741696,1745
1669285099.0981722,1744
1669285099.0991752,1747
1669285099.1001756,1767
1669285099.1231735,1817
1669285099.1491704,2216
1669285099.1541786,2419
1669285099.173208,2633
1669285099.1741707,2825
1669285099.1982095,2980
1669285099.1992068,3078
1669285099.2231693,3114
1669285099.2491803,2695
1669285099.2511744,2510
1669285099.273223,2323
1669285099.2741716,2143
1669285099.2981708,1981
1669285099.2991688,1837
1669285099.324171,1567
1669285099.3481753,1523
1669285099.349178,1499
1669285099.3741705,1506
1669285099.3981705,1527
1669285099.3992069,1559
1669285099.4231727,1601
1669285099.4241726,1647
1669285099.4251711,1700
1669285099.448201,1755
1669285099.473223,1896
1669285099.474171,1935
1669285099.4982052,1966
1669285099.499175,1986
1669285099.5001729,1997
1669285099.5231705,1991
1669285099.524174,1974
1669285099.5481691,1948
1669285099.549171,1912
1669285099.5501766,1872
1669285099.5741746,1830
1669285099.575169,1789
1669285099.5981717,1754
1669285099.59917,1724
1669285099.623169,1699
1669285099.6241748,1678
1669285099.625174,1656
1669285099.6592004,1635
1669285099.6601992,1617
1669285099.6621697,1603
1669285099.6631715,1596
1669285099.675172,1592
1669285099.6982062,1591
1669285099.6991696,1594
1669285099.7232037,1598
1669285099.7481706,1606
1669285099.7491715,1618
1669285099.7731962,1687
1669285099.774163,1708
1669285099.7751632,1725
1669285099.7981608,1740
1669285099.799162,1750
1669285099.8001602,1758
1669285099.8231623,1766
1669285099.8241634,1768
1669285099.8482018,1764
1669285099.849166,1763
1669285099.8501666,1759
1669285099.8731596,1756
1669285099.8741596,1753
1669285099.8981962,1748
1669285099.8991623,1742
1669285099.9011612,1740
1669285099.9231942,1739
1669285099.9241602,1733
1669285099.9482217,1725
1669285099.949165,1720
1669285099.9521759,1713
1669285099.9733176,1710
1669285099.9742582,1711
1669285099.9982564,1723
1669285099.9992628,1762
1669285100.0012224,1845
1669285100.0232806,1975
1669285100.0242212,2142
1669285100.0482502,2330
1669285100.049233,2524
1669285100.0733197,2707
1669285100.0742388,2864
1669285100.0752215,2973
1669285100.1023185,2926
1669285100.1232243,2803
1669285100.1242254,2648
1669285100.1482217,2475
1669285100.1492565,2303
1669285100.173319,2136
1669285100.174224,1983
1669285100.2232249,1630
1669285100.2242212,1554
1669285100.2482717,1504
1669285100.249254,1474
1669285100.2502286,1461
1669285100.252237,1459
1669285100.2542238,1473
1669285100.273315,1496
1669285100.2742321,1529
1669285100.299254,1572
1669285100.3062522,1622
1669285100.3232255,1679
1669285100.348225,1878
1669285100.349236,1934
1669285100.3502374,1978
1669285100.3732214,2006
1669285100.3742347,2019
1669285100.3982527,2024
1669285100.3992612,2015
1669285100.4242237,1932
1669285100.4482577,1897
1669285100.4492311,1857
1669285100.4522283,1818
1669285100.4732223,1776
1669285100.4742231,1736
1669285100.4982545,1705
1669285100.4992316,1680
1669285100.5232198,1662
1669285100.528227,1648
1669285100.5292568,1643
1669285100.5482595,1640
1669285100.598233,1634
1669285100.5992286,1639
1669285100.6232226,1643
1669285100.6242266,1646
1669285100.6252253,1648
1669285100.6482391,1652
1669285100.6492217,1660
1669285100.6732206,1666
1669285100.6742315,1675
1669285100.675253,1683
1669285100.698253,1693
1669285100.6992238,1705
1669285100.7232223,1719
1669285100.7242227,1729
1669285100.7732227,1747
1669285100.774223,1749
1669285100.7982674,1756
1669285100.7992213,1765
1669285100.8002243,1772
1669285100.8022254,1778
1669285100.8232222,1775
1669285100.824225,1764
1669285100.8252246,1752
1669285100.8482635,1736
1669285100.8492436,1715
1669285100.873225,1700
1669285100.8982263,1683
1669285100.8992286,1688
1669285100.9392807,1706
1669285100.9732385,2256
1669285100.9742239,2436
1669285100.9762325,2604
1669285100.9983373,2747
1669285100.999338,2845
1669285101.0231347,2891
1669285101.0241363,2882
1669285101.02615,2824
1669285101.0481782,2725
1669285101.0491414,2600
1669285101.0541363,2455
1669285101.0731535,2302
1669285101.0741515,2146
1669285101.098194,1994
1669285101.0991683,1852
1669285101.1231513,1727
1669285101.124153,1623
1669285101.1261535,1543
1669285101.1481895,1484
1669285101.173302,1445
1669285101.1983402,1423
1669285101.1993403,1418
1669285101.2003014,1428
1669285101.2233045,1527
1669285101.224301,1587
1669285101.2253065,1660
1669285101.2483032,1741
1669285101.2493012,1821
1669285101.273301,1896
1669285101.2743006,1958
1669285101.2753344,2002
1669285101.298339,2028
1669285101.299332,2041
1669285101.3233283,2045
1669285101.3243036,2043
1669285101.3253314,2038
1669285101.3483076,2023
1669285101.349301,1997
1669285101.373322,1963
1669285101.3743222,1920
1669285101.3753483,1877
1669285101.3983586,1831
1669285101.3993313,1785
1669285101.423319,1745
1669285101.424336,1709
1669285101.4253528,1676
1669285101.4483182,1649
1669285101.4493573,1632
1669285101.4743218,1631
1669285101.4983199,1641
1669285101.5073197,1651
1669285101.525322,1679
1669285101.548324,1685
1669285101.624324,1709
1669285101.6253216,1717
1669285101.6483204,1728
1669285101.6493328,1737
1669285101.67332,1743
1669285101.6743186,1747
1669285101.6753182,1752
1669285101.6983206,1759
1669285101.699319,1769
1669285101.7233188,1794
1669285101.7243192,1844
1669285101.7253191,1919
1669285101.748321,2022
1669285101.749318,2148
1669285101.7733219,2288
1669285101.774351,2426
1669285101.7993221,2709
1669285101.8233283,2727
1669285101.8243215,2705
1669285101.8493347,2442
1669285101.8733184,2310
1669285101.8983173,1899
1669285101.8993556,1773
1669285101.9233189,1663
1669285101.9733176,1415
1669285101.9743235,1397
1669285101.9753208,1392
1669285101.9983225,1400
1669285101.999348,1417
1669285102.000356,1446
1669285102.0483239,1705
1669285102.0493262,1785
1669285102.073321,1857
1669285102.0743506,1920
1669285102.0753505,1976
1669285102.0983596,2018
1669285102.148321,2003
1669285102.1753201,1834
1669285102.2233248,1794
1669285102.2243195,1755
1669285102.2253191,1718
1669285102.227319,1685
1669285102.2283196,1657
1669285102.2483194,1634
1669285102.2493193,1617
1669285102.2733183,1606
1669285102.2743547,1606
1669285102.2823536,1610
1669285102.298318,1620
1669285102.2993197,1631
1669285102.3233216,1646
1669285102.324321,1660
1669285102.3253205,1672
1669285102.3483217,1687
1669285102.349322,1696
1669285102.3733685,1698
1669285102.374399,1691
1669285102.3753982,1683
1669285102.3984041,1686
1669285102.4233654,1706
1669285102.4243994,1755
1669285102.425397,1831
1669285102.4274037,1937
1669285102.4483662,2075
1669285102.4493692,2237
1669285102.473408,2403
1669285102.4743776,2565
1669285102.4984052,2702
1669285102.4993668,2804
1669285102.5013633,2856
1669285102.5233614,2865
1669285102.5243657,2835
1669285102.5253644,2767
1669285102.548387,2663
1669285102.5493853,2530
1669285102.575364,2053
1669285102.5984025,1902
1669285102.599401,1774
1669285102.6233704,1668
1669285102.624368,1586
1669285102.6253653,1523
1669285102.6483965,1474
1669285102.6493785,1441
1669285102.6733785,1424
1669285102.6743765,1421
1669285102.6984138,1434
1669285102.69941,1456
1669285102.7004545,1488
1669285102.7233744,1535
1669285102.7244136,1595
1669285102.7264137,1663
1669285102.748394,1734
1669285102.7494156,1802
1669285102.7733784,1866
1669285102.7744126,1921
1669285102.7754092,1966
1669285102.8233829,2013
1669285102.8343842,2000
1669285102.859379,1980
1669285102.8603766,1949
1669285102.8623755,1909
1669285102.8633769,1859
1669285102.8743763,1808
1669285102.8993802,1691
1669285102.9233792,1666
1669285102.9243772,1645
1669285102.9253767,1629
1669285102.9484084,1622
1669285102.9494133,1620
1669285102.9733822,1620
1669285102.9983811,1612
1669285102.9993796,1611
1669285103.0233772,1616
1669285103.024383,1623
1669285103.0253787,1630
1669285103.0483766,1636
1669285103.049376,1641
1669285103.0733764,1653
1669285103.0744123,1679
1669285103.0754054,1731
1669285103.098413,1820
1669285103.1004293,1943
1669285103.1233773,2105
1669285103.1504078,2288
1669285103.1523764,2479
1669285103.1533797,2659
1669285103.1543796,2809
1669285103.1554077,2919
1669285103.1733773,2975
1669285103.1744037,2973
1669285103.198415,2923
1669285103.2243898,2546
1669285103.2253847,2377
1669285103.2523913,2208
1669285103.2533991,2051
1669285103.2543902,1914
1669285103.2733781,1795
1669285103.2743776,1698
1669285103.2983823,1624
1669285103.2993822,1564
1669285103.3233771,1522
1669285103.3243794,1496
1669285103.3253777,1483
1669285103.3483763,1487
1669285103.3493757,1499
1669285103.3733754,1528
1669285103.3743763,1570
1669285103.4233768,1737
1669285103.4243772,1797
1669285103.4253776,1856
1669285103.450379,1979
1669285103.4733765,1996
1669285103.4743779,1998
1669285103.4753792,1988
1669285103.4993763,1971
1669285103.5003939,1946
1669285103.523382,1916
1669285103.5483763,1799
1669285103.5493793,1763
1669285103.5733767,1732
1669285103.5743828,1705
1669285103.5753787,1682
1669285103.598374,1666
1669285103.599375,1657
1669285103.6233752,1652
1669285103.6243758,1645
1669285103.6253755,1638
1669285103.6484625,1633
1669285103.6494246,1631
1669285103.673656,1631
1669285103.6746914,1633
1669285103.6796575,1636
1669285103.6987402,1643
1669285103.6997445,1654
1669285103.7236562,1667
1669285103.7246926,1680
1669285103.748655,1688
1669285103.7536585,1695
1669285103.773674,1703
1669285103.7746856,1720
1669285103.775658,1760
1669285103.77669,1833
1669285103.7986677,1943
1669285103.7998433,2086
1669285103.8236644,2257
1669285103.8246849,2442
1669285103.8486557,2630
1669285103.849659,2802
1669285103.8516898,2944
1669285103.873657,3040
1669285103.8746982,3077
1669285103.8756568,3057
1669285103.898656,2982
1669285103.8996766,2855
1669285103.9236581,2693
1669285103.9246907,2511
1669285103.925693,2325
1669285103.9486587,2141
1669285103.9496558,1976
1669285103.9736638,1845
1669285103.9746845,1738
1669285103.9756572,1659
1669285103.9986575,1604
1669285103.9998472,1567
1669285104.0236566,1549
1669285104.0246923,1540
1669285104.02569,1540
1669285104.0486603,1547
1669285104.0496573,1567
1669285104.073657,1599
1669285104.0746596,1640
1669285104.0756555,1692
1669285104.1016605,1747
1669285104.103665,1803
1669285104.1046674,1864
1669285104.1396558,1920
1669285104.140692,1966
1669285104.1416576,1999
1669285104.1736887,2019
1669285104.1766577,2003
1669285104.1986582,1973
1669285104.1996608,1933
1669285104.2236621,1892
1669285104.2246592,1850
1669285104.226666,1811
1669285104.2486827,1774
1669285104.275657,1643
1669285104.2986627,1615
1669285104.2996585,1599
1669285104.3236578,1595
1669285104.3246589,1594
1669285104.348665,1601
1669285104.373658,1627
1669285104.3986628,1634
1669285104.3996632,1646
1669285104.400666,1656
1669285104.4236598,1672
1669285104.4246619,1688
1669285104.4256604,1700
1669285104.449662,1724
1669285104.4736693,1733
1669285104.4746614,1735
1669285104.4996583,1738
1669285104.5236576,1743
1669285104.524666,1745
1669285104.5256596,1760
1669285104.5486598,1803
1669285104.5586555,1884
1669285104.573691,2011
1669285104.5996575,2759
1669285104.6236577,2935
1669285104.6246636,3060
1669285104.6256907,3128
1669285104.6487074,3138
1669285104.6496882,3089
1669285104.6736927,2989
1669285104.6746879,2840
1669285104.6986582,2664
1669285104.6997306,2478
1669285104.723688,2295
1669285104.7246876,2123
1669285104.7296877,1967
1669285104.730692,1838
1669285104.74874,1740
1669285104.7497044,1669
1669285104.77969,1625
1669285104.7806568,1598
1669285104.7816558,1584
1669285104.7987463,1586
1669285104.8246713,1647
1669285104.8256571,1679
1669285104.8486986,1713
1669285104.8496594,1756
1669285104.8736908,1801
1669285104.8746946,1845
1669285104.8986897,1883
1669285104.8996599,1912
1669285104.9007585,1935
1669285104.9236915,1954
1669285104.9246888,1965
1669285104.925693,1967
1669285104.948695,1953
1669285104.9736845,1929
1669285104.9746842,1901
1669285104.9987493,1870
1669285104.9997463,1839
1669285105.0007484,1807
1669285105.0027063,1773
1669285105.0236902,1741
1669285105.02469,1709
1669285105.025663,1685
1669285105.0486925,1666
1669285105.0496907,1651
1669285105.0736587,1639
1669285105.074685,1632
1669285105.0756571,1631
1669285105.0987463,1634
1669285105.1056676,1641
1669285105.1236916,1653
1669285105.124686,1666
1669285105.1256568,1683
1669285105.1496582,1696
1669285105.150656,1706
1669285105.1736562,1717
1669285105.174661,1725
1669285105.1756577,1728
1669285105.1986573,1729
1669285105.199718,1729
1669285105.2236948,1728
1669285105.224708,1730
1669285105.2256565,1737
1669285105.2477107,1748
1669285105.253658,1753
1669285105.2736924,1754
1669285105.29866,1755
1669285105.299752,1759
1669285105.300844,1765
1669285105.302665,1766
1669285105.32369,1766
1669285105.32469,1767
1669285105.3486578,1766
1669285105.3496904,1768
1669285105.3546743,1766
1669285105.355664,1759
1669285105.3736582,1744
1669285105.3786721,1730
1669285105.422667,1708
1669285105.4236586,1719
1669285105.4486914,1747
1669285105.4496555,1805
1669285105.4506936,1904
1669285105.4596624,2056
1669285105.473706,2247
1669285105.4746585,2462
1669285105.4986646,2680
1669285105.4997468,2877
1669285105.5236912,3034
1669285105.5246902,3136
1669285105.5496604,3071
1669285105.5736992,2940
1669285105.5746615,2770
1669285105.5756595,2585
1669285105.5986605,2397
1669285105.5996573,2217
1669285105.623683,2051
1669285105.624698,1905
1669285105.6486933,1790
1669285105.6736593,1701
1669285105.6746588,1639
1669285105.6756616,1601
1669285105.698658,1560
1669285105.6996682,1562
1669285105.7236574,1575
1669285105.724664,1597
1669285105.7486553,1627
1669285105.7496688,1667
1669285105.7506554,1715
1669285105.773685,1770
1669285105.774686,1822
1669285105.7987168,1867
1669285105.7997177,1903
1669285105.800728,1928
1669285105.8236878,1943
1669285105.8246882,1941
1669285105.848703,1929
1669285105.8497043,1911
1669285105.8746898,1817
1669285105.8796592,1778
1669285105.8986554,1740
1669285105.8996587,1702
1669285105.9236557,1669
1669285105.9246562,1638
1669285105.9486926,1609
1669285105.97466,1595
1669285105.9836595,1609
1669285106.0246599,1677
1669285106.0616624,1712
1669285106.0636864,1716
1669285106.073661,1720
1669285106.1236596,1744
1669285106.124694,1756
1669285106.1486588,1770
1669285106.1496618,1784
1669285106.1506925,1798
1669285106.1736887,1809
1669285106.174688,1814
1669285106.1986957,1816
1669285106.1996853,1812
1669285106.2006907,1807
1669285106.2236617,1804
1669285106.2246573,1802
1669285106.248756,1800
1669285106.2497468,1794
1669285106.250713,1785
1669285106.273686,1772
1669285106.2746859,1760
1669285106.2986653,1752
1669285106.3236637,1722
1669285106.3246646,1715
1669285106.3486576,1712
1669285106.349659,1709
1669285106.3506584,1712
1669285106.3736837,1724
1669285106.374659,1753
1669285106.3987253,1815
1669285106.3997426,1915
1669285106.4007516,2053
1669285106.423691,2224
1669285106.4246907,2418
1669285106.4487112,2617
1669285106.4496946,2808
1669285106.4506733,2965
1669285106.473685,3070
1669285106.4746861,3116
1669285106.4986584,3105
1669285106.4997115,3042
1669285106.5007112,2929
1669285106.5236833,2778
1669285106.524692,2601
1669285106.5487165,2414
1669285106.5496976,2226
1669285106.5506546,2051
1669285106.5736873,1895
1669285106.5746949,1767
1669285106.5986564,1667
1669285106.6236832,1594
1669285106.624683,1536
1669285106.6256828,1494
1669285106.6266944,1470
1669285106.6286902,1468
1669285106.6487038,1483
1669285106.6496937,1513
1669285106.6736908,1553
1669285106.67469,1598
1669285106.6998546,1652
1669285106.700849,1715
1669285106.7028737,1784
1669285106.7236946,1854
1669285106.7246902,1920
1669285106.732685,1969
1669285106.7486558,1996
1669285106.749692,2011
1669285106.7736888,2019
1669285106.7746913,2017
1669285106.79866,2004
1669285106.799846,1972
1669285106.8006723,1932
1669285106.8486946,1787
1669285106.8496583,1742
1669285106.8506565,1701
1669285106.8736606,1668
1669285106.8746576,1636
1669285106.8986893,1609
1669285106.8997548,1589
1669285106.9246588,1577
1669285106.948699,1580
1669285106.9496808,1590
1669285106.974657,1619
1669285106.998661,1625
1669285107.0236614,1659
1669285107.024664,1677
1669285107.0496588,1695
1669285107.0736582,1736
1669285107.0986557,1742
1669285107.123657,1744
1669285107.1246564,1748
1669285107.1256576,1752
1669285107.126657,1757
1669285107.1286557,1759
1669285107.1496582,1771
1669285107.1736836,1774
1669285107.1747196,1773
1669285107.198657,1769
1669285107.199658,1763
1669285107.2006612,1754
1669285107.2236571,1745
1669285107.2736607,1793
1669285107.3396595,2487
1669285107.3406715,2657
1669285107.3416617,2793
1669285107.343659,2885
1669285107.3736556,2935
1669285107.3996575,2665
1669285107.400655,2500
1669285107.4236572,2318
1669285107.4246564,2136
1669285107.448666,1965
1669285107.449658,1817
1669285107.49866,1511
1669285107.4996612,1454
1669285107.5006895,1413
1669285107.5236576,1387
1669285107.5246572,1377
1669285107.5256555,1390
1669285107.548689,1424
1669285107.5496955,1476
1669285107.550661,1544
1669285107.573662,1620
1669285107.5746615,1693
1669285107.5987027,1768
1669285107.62366,1951
1669285107.6246638,1993
1669285107.6487246,2017
1669285107.649731,2024
1669285107.6507313,2019
1669285107.6746871,2005
1669285107.675688,1986
1669285107.6986947,1956
1669285107.699655,1918
1669285107.7007303,1872
1669285107.723684,1818
1669285107.724683,1765
1669285107.7486875,1716
1669285107.7496893,1681
1669285107.7506876,1656
1669285107.7746694,1641
1669285107.7756557,1629
1669285107.798746,1622
1669285107.7997458,1619
1669285107.8016598,1619
1669285107.8236923,1621
1669285107.8246903,1625
1669285107.8487086,1630
1669285107.8496943,1634
1669285107.8506622,1633
1669285107.8732257,1637
1669285107.898233,1644
1669285107.900246,1653
1669285107.9232013,1660
1669285107.9242282,1666
1669285107.9481957,1689
1669285107.9491985,1701
1669285107.9512045,1711
1669285107.979718,1723
1669285107.980758,1734
1669285107.9827173,1751
1669285107.9987183,1769
1669285107.999808,1782
1669285108.0237224,1793
1669285108.024725,1794
1669285108.0487285,1796
1669285108.0497525,1793
1669285108.0517185,1789
1669285108.0737514,1791
1669285108.0747497,1799
1669285108.1017168,1829
1669285108.1037188,1886
1669285108.1117196,1973
1669285108.1237152,2089
1669285108.1247473,2230
1669285108.1487718,2389
1669285108.1497536,2549
1669285108.1507308,2690
1669285108.1737525,2801
1669285108.174751,2873
1669285108.2247195,2825
1669285108.225731,2724
1669285108.2487595,2587
1669285108.2527199,2082
1669285108.2737162,1932
1669285108.3007183,1597
1669285108.3007183,1533
1669285108.3237197,1486
1669285108.349719,1438
1669285108.3507175,1452
1669285108.3737187,1481
1669285108.374722,1522
1669285108.3987174,1577
1669285108.3997195,1641
1669285108.4017253,1714
1669285108.423231,1796
1669285108.4242303,1873
1669285108.4482305,1943
1669285108.4502294,2004
1669285108.4512312,2051
1669285108.4737437,2079
1669285108.498831,2084
1669285108.4998283,2076
1669285108.5007634,2047
1669285108.5247478,1902
1669285108.5487826,1851
1669285108.5497808,1803
1669285108.5747488,1680
1669285108.6237512,1655
1669285108.626749,1595
1669285108.628749,1593
1669285108.6487544,1598
1669285108.6747463,1625
1669285108.698746,1632
1669285108.6997437,1641
1669285108.7007508,1656
1669285108.727745,1666
1669285108.7287455,1672
1669285108.7497473,1698
1669285108.773748,1713
1669285108.774749,1728
1669285108.7987454,1745
1669285108.8237534,1777
1669285108.824744,1776
1669285108.848744,1776
1669285108.8497534,1773
1669285108.8737445,1774
1669285108.874752,1774
1669285108.8997471,1794
1669285108.9237473,1819
1669285108.9247458,1868
1669285108.9257467,1952
1669285108.94875,2072
1669285108.9497526,2226
1669285108.9507525,2402
1669285108.9737425,2590
1669285108.9747443,2769
1669285108.9987466,2925
1669285108.9998198,3043
1669285109.0008187,3113
1669285109.0237498,3126
1669285109.0247543,3081
1669285109.0488274,2983
1669285109.0497549,2845
1669285109.0507824,2675
1669285109.0737784,2484
1669285109.0747786,2290
1669285109.098933,2108
1669285109.0999284,1943
1669285109.1007488,1805
1669285109.123747,1695
1669285109.124747,1611
1669285109.1507916,1544
1669285109.1517475,1498
1669285109.153745,1473
1669285109.1737702,1470
1669285109.1747859,1478
1669285109.1987758,1502
1669285109.1997747,1538
1669285109.2007806,1590
1669285109.2237508,1657
1669285109.2247472,1734
1669285109.2637806,1816
1669285109.2647464,1894
1669285109.2657475,1966
1669285109.2677865,2030
1669285109.2989354,2081
1669285109.2999322,2121
1669285109.3017445,2137
1669285109.3028314,2131
1669285109.3237705,2108
1669285109.3487968,2071
1669285109.3737633,1899
1669285109.3747592,1844
1669285109.3757453,1797
1669285109.398779,1760
1669285109.3997834,1731
1669285109.4237466,1708
1669285109.4247513,1686
1669285109.4257495,1675
1669285109.4488015,1666
1669285109.4497802,1659
1669285109.450753,1651
1669285109.4987478,1631
1669285109.4997458,1628
1669285109.5008342,1630
1669285109.548836,1654
1669285109.5498428,1666
1669285109.5747507,1711
1669285109.5807438,1731
1669285109.5987766,1749
1669285109.6247447,1801
1669285109.648778,1813
1669285109.6508048,1818
1669285109.6737757,1820
1669285109.674783,1824
1669285109.698744,1826
1669285109.6997979,1827
1669285109.7237487,1812
1669285109.72475,1799
1669285109.7487547,1794
1669285109.7497478,1800
1669285109.7517467,1832
1669285109.7737706,1901
1669285109.774785,2009
1669285109.798758,2162
1669285109.7997472,2346
1669285109.8007462,2545
1669285109.8237484,2741
1669285109.824744,2908
1669285109.8487988,3036
1669285109.849782,3107
1669285109.8507774,3123
1669285109.873744,3081
1669285109.904747,2648
1669285109.9057457,2454
1669285109.9237454,2260
1669285109.9497752,1760
1669285109.950798,1647
1669285109.973747,1566
1669285109.9747462,1506
1669285109.9987466,1467
1669285110.0487435,1485
1669285110.0497487,1526
1669285110.0737429,1584
1669285110.0747442,1657
1669285110.0757449,1737
1669285110.0987446,1821
1669285110.0997505,1899
1669285110.1497545,2071
1669285110.1508183,2100
1669285110.1567464,2107
1669285110.198745,1966
1669285110.1997433,1911
1669285110.2007985,1857
1669285110.2237449,1808
1669285110.2247462,1764
1669285110.2487466,1726
1669285110.2497437,1699
1669285110.251745,1680
1669285110.2737477,1668
1669285110.2747438,1661
1669285110.2987473,1656
1669285110.2997801,1651
1669285110.3008327,1646
1669285110.3237455,1644
1669285110.3247488,1647
1669285110.3487985,1652
1669285110.3497796,1661
1669285110.3517468,1667
1669285110.373745,1676
1669285110.3747797,1689
1669285110.3989365,1700
1669285110.3999329,1708
1669285110.4237852,1714
1669285110.4247615,1718
1669285110.4297838,1725
1669285110.4307466,1734
1669285110.4487453,1746
1669285110.4737449,1764
1669285110.4747472,1782
1669285110.4757485,1794
1669285110.4988298,1803
1669285110.4998298,1804
1669285110.5437806,1802
1669285110.5447774,1793
1669285110.5457487,1788
1669285110.5477448,1777
1669285110.5489252,1762
1669285110.5737774,1751
1669285110.5747845,1743
1669285110.5988421,1740
1669285110.6237462,1839
1669285110.62475,1930
1669285110.648747,2063
1669285110.6497464,2229
1669285110.6507456,2416
1669285110.673777,2611
1669285110.6747909,2791
1669285110.698745,2942
1669285110.6997497,3048
1669285110.7007635,3099
1669285110.7237442,3090
1669285110.724753,3020
1669285110.7487779,2901
1669285110.749775,2744
1669285110.7507803,2567
1669285110.773776,2383
1669285110.7747777,2200
1669285110.798793,2023
1669285110.7997916,1863
1669285110.8007724,1721
1669285110.823747,1606
1669285110.8247454,1524
1669285110.8488314,1470
1669285110.849751,1438
1669285110.8737843,1427
1669285110.8757453,1431
1669285110.8777425,1450
1669285110.9247453,1612
1669285110.9487436,1689
1669285110.949748,1771
1669285110.9507678,1851
1669285110.9527543,1921
1669285110.9737713,1985
1669285110.974771,2041
1669285111.0007465,2104
1669285111.0237463,2081
1669285111.0247464,2049
1669285111.048743,2014
1669285111.0497549,1975
1669285111.0547526,1930
1669285111.0737758,1878
1669285111.0747778,1822
1669285111.0987759,1773
1669285111.0998368,1730
1669285111.1237922,1698
1669285111.148833,1639
1669285111.1497753,1627
1669285111.1507707,1627
1669285111.183746,1637
1669285111.184747,1653
1669285111.1967814,1671
1669285111.198751,1693
1669285111.2487428,1750
1669285111.249744,1755
1669285111.2527518,1759
1669285111.2737713,1763
1669285111.2747724,1766
1669285111.298798,1771
1669285111.3487442,1785
1669285111.3497968,1794
1669285111.3507977,1804
1669285111.3737466,1808
1669285111.3747518,1806
1669285111.3757489,1796
1669285111.3987474,1788
1669285111.3997464,1791
1669285111.4237454,1811
1669285111.4247465,1853
1669285111.4257548,1923
1669285111.4487498,2027
1669285111.4497528,2154
1669285111.4737442,2303
1669285111.4747443,2467
1669285111.4757428,2624
1669285111.498751,2766
1669285111.4997435,2864
1669285111.523745,2912
1669285111.524745,2905
1669285111.5497444,2620
1669285111.573747,2468
1669285111.5747461,2302
1669285111.5757494,2133
1669285111.5987458,1969
1669285111.599745,1820
1669285111.623747,1691
1669285111.624747,1591
1669285111.6267455,1516
1669285111.6487556,1463
1669285111.6497512,1431
1669285111.6737807,1419
1669285111.6747758,1422
1669285111.6757474,1445
1669285111.6988294,1480
1669285111.6998258,1530
1669285111.7027442,1595
1669285111.7237513,1670
1669285111.7247488,1751
1669285111.7489393,1833
1669285111.749748,1912
1669285111.773748,1987
1669285111.7847447,2122
1669285111.8197467,2129
1669285111.8207505,2125
1669285111.82275,2107
1669285111.8247468,2075
1669285111.8488407,2030
1669285111.849792,1973
1669285111.8737729,1917
1669285111.8747828,1861
1669285111.8757477,1812
1669285111.898941,1767
1669285111.8998172,1726
1669285111.9237707,1693
1669285111.9247775,1667
1669285111.9257443,1653
1669285111.973096,1672
1669285111.9750962,1684
1669285111.9760976,1690
1669285111.9991121,1695
1669285112.0002847,1697
1669285112.0230987,1702
1669285112.0250962,1703
1669285112.0260994,1701
1669285112.0490925,1699
1669285112.050111,1699
1669285112.0731266,1703
1669285112.0751293,1705
1669285112.076133,1707
1669285112.099114,1713
1669285112.1231163,1721
1669285112.1251545,1732
1669285112.1490922,1741
1669285112.1501257,1754
1669285112.1510954,1772
1669285112.152095,1798
1669285112.1740932,1846
1669285112.201169,2192
1669285112.2021682,2356
1669285112.2040975,2531
1669285112.2240934,2698
1669285112.2250953,2832
1669285112.2491102,2924
1669285112.2501411,2962
1669285112.2751074,2775
1669285112.2991035,2640
1669285112.3000925,2482
1669285112.3080938,2307
1669285112.323098,2128
1669285112.3250957,1961
1669285112.3491051,1808
1669285112.3750958,1497
1669285112.3760977,1444
1669285112.398134,1415
1669285112.460094,1508
1669285112.4610946,1580
1669285112.4730945,1663
1669285112.4986184,1752
1669285112.4996161,1844
1669285112.500624,1928
1669285112.5026152,1998
1669285112.5231366,2050
1669285112.5251403,2085
1669285112.526138,2100
1669285112.5481315,2101
1669285112.5501335,2081
1669285112.5731335,2056
1669285112.5751333,2021
1669285112.6001332,1881
1669285112.623136,1834
1669285112.6251357,1792
1669285112.626136,1753
1669285112.6481383,1715
1669285112.650133,1678
1669285112.6731398,1646
1669285112.7001355,1614
1669285112.7251418,1623
1669285112.7501323,1671
1669285112.7761388,1691
1669285112.7981358,1700
1669285112.8002079,1708
1669285112.8482077,1740
1669285112.850209,1748
1669285112.873164,1761
1669285112.875135,1784
1669285112.8761418,1836
1669285112.898138,1928
1669285112.900209,2071
1669285112.9231355,2257
1669285112.9251385,2470
1669285112.949135,2689
1669285112.9501665,2888
1669285112.97314,3048
1669285112.9751701,3159
1669285112.976135,3208
1669285112.9771724,3198
1669285112.9982157,3126
1669285113.000218,3002
1669285113.0231967,2841
1669285113.0252423,2658
1669285113.0484426,2464
1669285113.0733538,1920
1669285113.0743542,1784
1669285113.0753567,1673
1669285113.0993516,1588
1669285113.10135,1526
1669285113.123352,1488
1669285113.124351,1470
1669285113.1263509,1466
1669285113.1483552,1478
1669285113.1493533,1503
1669285113.1733494,1546
1669285113.174354,1606
1669285113.176351,1675
1669285113.198356,1749
1669285113.1993487,1825
1669285113.2233512,1899
1669285113.224351,1966
1669285113.2263498,2023
1669285113.252351,2065
1669285113.2533514,2095
1669285113.2563508,2105
1669285113.2733493,2104
1669285113.2743487,2093
1669285113.298433,2072
1669285113.3003507,2040
1669285113.3263533,1888
1669285113.3484445,1827
1669285113.3493586,1774
1669285113.399353,1667
1669285113.4233499,1665
1669285113.4243495,1670
1669285113.426353,1678
1669285113.4283917,1689
1669285113.4483702,1702
1669285113.4493904,1710
1669285113.4733522,1718
1669285113.47535,1726
1669285113.476356,1730
1669285113.4984448,1742
1669285113.5003498,1755
1669285113.523353,1774
1669285113.5243516,1794
1669285113.5263863,1814
1669285113.5733516,1848
1669285113.5743513,1844
1669285113.5763507,1839
1669285113.5983503,1836
1669285113.5993495,1836
1669285113.6233568,1838
1669285113.6243513,1833
1669285113.6503599,1872
1669285113.6733556,1942
1669285113.674354,2058
1669285113.69935,2629
1669285113.7393553,2831
1669285113.7763515,3146
1669285113.7983506,2698
1669285113.79935,2501
1669285113.823354,2303
1669285113.8253577,2115
1669285113.8263533,1948
1669285113.8483567,1812
1669285113.8493485,1703
1669285113.8733478,1629
1669285113.879353,1582
1669285113.8983564,1558
1669285113.9233506,1549
1669285113.9243512,1551
1669285113.9263504,1567
1669285113.92735,1591
1669285113.92835,1625
1669285113.9483488,1672
1669285113.9743598,1866
1669285113.9763563,1935
1669285113.9983504,2001
1669285114.025355,2130
1669285114.0263538,2141
1669285114.0483568,2134
1669285114.049349,2108
1669285114.0733502,2069
1669285114.074352,2013
1669285114.0763502,1951
1669285114.0983577,1891
1669285114.0993488,1827
1669285114.123358,1772
1669285114.1484342,1721
1669285114.1503522,1680
1669285114.173382,1646
1669285114.1743526,1622
1669285114.1763535,1611
1669285114.1773882,1609
1669285114.1783507,1614
1669285114.1983633,1628
1669285114.1993644,1642
1669285114.2243626,1659
1669285114.2243626,1672
1669285114.2263565,1681
1669285114.2484062,1688
1669285114.250351,1692
1669285114.2733881,1697
1669285114.2983613,1719
1669285114.2993526,1732
1669285114.3233569,1745
1669285114.3243532,1759
1669285114.326353,1775
1669285114.3483517,1789
1669285114.3503537,1801
1669285114.38035,1814
1669285114.3814194,1828
1669285114.382439,1836
1669285114.4023662,1841
1669285114.403352,1843
1669285114.4043868,1837
1669285114.4233532,1829
1669285114.425352,1821
1669285114.4483757,1810
1669285114.450567,1799
1669285114.4733844,1786
1669285114.4753516,1770
1669285114.4983883,1759
1669285114.499392,1749
1669285114.5053487,1747
1669285114.506385,1767
1669285114.5233505,1820
1669285114.548385,1919
1669285114.5503488,2068
1669285114.5513852,2259
1669285114.5733857,2478
1669285114.5753527,2702
1669285114.6003492,2914
1669285114.6003492,3089
1669285114.601359,3211
1669285114.6233802,3272
1669285114.625351,3264
1669285114.6263576,3192
1669285114.673351,2692
1669285114.6753507,2478
1669285114.6763952,2266
1669285114.6983545,2061
1669285114.700362,1879
1669285114.72335,1735
1669285114.724351,1627
1669285114.7263508,1549
1669285114.7483504,1500
1669285114.749352,1475
1669285114.77335,1470
1669285114.774351,1480
1669285114.7763507,1501
1669285114.7983525,1532
1669285114.7993536,1577
1669285114.8233511,1635
1669285114.848356,1875
1669285114.8493552,1950
1669285114.8733513,2018
1669285114.874352,2074
1669285114.8763516,2114
1669285114.8983524,2131
1669285114.8993523,2130
1669285114.9483578,1984
1669285114.973355,1929
1669285115.0253572,1750
1669285115.0293517,1605
1669285115.0313601,1596
1669285115.0483508,1596
1669285115.076355,1624
1669285115.0983505,1629
1669285115.0993505,1635
1669285115.123395,1638
1669285115.1243799,1641
1669285115.1303518,1647
1669285115.1484194,1658
1669285115.1503537,1671
1669285115.1733887,1691
1669285115.175355,1711
1669285115.176387,1736
1669285115.1984184,1759
1669285115.1993806,1779
1669285115.2243695,1793
1669285115.2243695,1803
1669285115.2503498,1826
1669285115.2733865,1836
1669285115.2753499,1842
1669285115.300348,1825
1669285115.32335,1814
1669285115.3484435,1767
1669285115.35035,1756
1669285115.3733847,1759
1669285115.4233508,2262
1669285115.4253547,2462
1669285115.4484613,2661
1669285115.4733536,2830
1669285115.474357,2954
1669285115.476355,3022
1669285115.4773536,3026
1669285115.478354,2976
1669285115.4983525,2882
1669285115.4993536,2754
1669285115.523354,2597
1669285115.5253556,2417
1669285115.5484412,2225
1669285115.573355,1713
1669285115.5753531,1586
1669285115.598353,1491
1669285115.599349,1424
1669285115.626354,1369
1669285115.626354,1390
1669285115.6633503,1428
1669285115.6643496,1480
1669285115.6663585,1546
1669285115.6673555,1627
1669285115.698357,1719
1669285115.699349,1815
1669285115.701348,1908
1669285115.7253497,1989
1669285115.7263546,2053
1669285115.7273526,2095
1669285115.7513585,2115
1669285115.7523654,2115
1669285115.7983499,2096
1669285115.799349,2064
1669285115.801349,2019
1669285115.8023515,1960
1669285115.8033493,1902
1669285115.8233547,1846
1669285115.8253498,1795
1669285115.8483484,1746
1669285115.8493488,1698
1669285115.8503482,1657
1669285115.857355,1623
1669285115.8983505,1572
1669285115.9003487,1574
1669285115.9233553,1580
1669285115.9253514,1589
1669285115.9263518,1604
1669285115.9483542,1621
1669285115.9503486,1636
1669285115.9733808,1652
1669285115.9753487,1668
1669285115.9984543,1688
1669285116.0004432,1712
1669285116.0013697,1729
1669285116.0233536,1744
1669285116.0253491,1755
1669285116.0493498,1765
1669285116.0503693,1769
1669285116.051352,1770
1669285116.0737267,1774
1669285116.074689,1782
1669285116.09869,1792
1669285116.099697,1799
1669285116.1087298,1809
1669285116.1237154,1830
1669285116.1247091,1875
1669285116.1488912,1959
1669285116.1506884,2084
1669285116.1546934,2247
1669285116.1737225,2431
1669285116.1989284,2619
1669285116.1996896,2790
1669285116.200693,2925
1669285116.20269,3011
1669285116.2236912,3041
1669285116.2247179,3015
1669285116.2488766,2934
1669285116.2736893,2492
1669285116.2746918,2316
1669285116.3026953,1820
1669285116.3236938,1687
1669285116.3246963,1576
1669285116.3496962,1362
1669285116.3736885,1331
1669285116.3787246,1323
1669285116.379688,1343
1669285116.3987231,1385
1669285116.3997493,1452
1669285116.4236934,1540
1669285116.4486897,1858
1669285116.4497654,1966
1669285116.4736903,2057
1669285116.4746926,2124
1669285116.4986892,2169
1669285116.4996905,2198
1669285116.523688,2212
1669285116.5246878,2207
1669285116.5487423,2182
1669285116.5496886,2147
1669285116.550724,2101
1669285116.5526903,2050
1669285116.5736895,1996
1669285116.5746872,1936
1669285116.5986917,1877
1669285116.5996943,1810
1669285116.6246898,1623
1669285116.6486874,1579
1669285116.6497633,1549
1669285116.674691,1546
1669285116.6987247,1561
1669285116.6997633,1580
1669285116.700719,1603
1669285116.7236946,1629
1669285116.7346885,1652
1669285116.7487497,1664
1669285116.7746935,1655
1669285116.7986887,1648
1669285116.799722,1641
1669285116.8006883,1641
1669285116.823689,1644
1669285116.8246927,1654
1669285116.8487499,1684
1669285116.8496885,1746
1669285116.851701,1846
1669285116.8736916,2000
1669285116.8747241,2200
1669285116.903701,2906
1669285116.9397228,3097
1669285116.9407296,3230
1669285116.9427195,3294
1669285116.9436889,3286
1669285116.9737308,3210
1669285116.974723,3080
1669285116.9987705,2907
1669285116.999762,2702
1669285117.00169,2490
1669285117.0026891,2282
1669285117.0236902,2086
1669285117.0246935,1913
1669285117.0487747,1773
1669285117.049774,1671
1669285117.0506923,1601
1669285117.073725,1557
1669285117.0746908,1536
1669285117.0987787,1535
1669285117.099778,1549
1669285117.1016898,1569
1669285117.1236963,1595
1669285117.1246922,1625
1669285117.1489015,1667
1669285117.1497357,1716
1669285117.151691,1770
1669285117.173691,1831
1669285117.1747243,1893
1669285117.1986966,1953
1669285117.2007039,2009
1669285117.2016885,2053
1669285117.2236888,2080
1669285117.224691,2089
1669285117.2489014,2079
1669285117.2506917,2055
1669285117.2516882,2015
1669285117.2737255,1966
1669285117.2817245,1915
1669285117.2988822,1867
1669285117.3006887,1830
1669285117.3016973,1794
1669285117.3236923,1757
1669285117.3246894,1725
1669285117.3488925,1698
1669285117.3498886,1676
1669285117.3517015,1654
1669285117.3736894,1630
1669285117.3746886,1611
1669285117.3988738,1593
1669285117.4007018,1580
1669285117.401706,1577
1669285117.4236906,1584
1669285117.4246936,1605
1669285117.448898,1640
1669285117.4498973,1681
1669285117.451697,1722
1669285117.4737256,1766
1669285117.474689,1805
1669285117.4988852,1839
1669285117.5006878,1860
1669285117.5016882,1865
1669285117.5237148,1846
1669285117.54874,1699
1669285117.549723,1652
1669285117.579692,1630
1669285117.5827794,1640
1669285117.5987794,1680
1669285117.6236892,1758
1669285117.624689,1880
1669285117.6337783,2460
1669285117.6488826,2689
1669285117.6497054,2900
1669285117.6736915,3078
1669285117.674691,3202
1669285117.6986904,3267
1669285117.699694,3270
1669285117.7246926,2958
1669285117.7487242,2775
1669285117.7497427,2579
1669285117.7506876,2370
1669285117.773744,2167
1669285117.7747235,1976
1669285117.7987356,1810
1669285117.823693,1473
1669285117.8246946,1403
1669285117.8487244,1356
1669285117.87369,1339
1669285117.8827152,1364
1669285117.9246907,1541
1669285117.9256938,1623
1669285117.9487417,1708
1669285117.974693,2019
1669285117.9986904,2050
1669285117.9996998,2066
1669285118.0006917,2068
1669285118.023699,2055
1669285118.0506892,1863
1669285118.0736895,1801
1669285118.0746908,1742
1669285118.0986907,1684
1669285118.0996907,1633
1669285118.10069,1590
1669285118.1236892,1561
1669285118.1246927,1543
1669285118.1486878,1532
1669285118.1496978,1530
1669285118.1506884,1535
1669285118.1736896,1543
1669285118.1746874,1550
1669285118.2196925,1555
1669285118.2206917,1559
1669285118.2226884,1568
1669285118.2236917,1583
1669285118.2486863,1603
1669285118.249689,1623
1669285118.25169,1642
1669285118.252691,1655
1669285118.2737253,1661
1669285118.274723,1655
1669285118.2987564,1639
1669285118.2996902,1619
1669285118.3016884,1603
1669285118.3236904,1595
1669285118.3246882,1595
1669285118.3516934,1604
1669285118.3527222,1621
1669285118.353696,1651
1669285118.3736923,1710
1669285118.3747194,1806
1669285118.398879,1945
1669285118.4006898,2129
1669285118.4016893,2340
1669285118.423694,2561
1669285118.4246943,2770
1669285118.4488919,2943
1669285118.4496937,3069
1669285118.4506917,3133
1669285118.4737244,3137
1669285118.474719,3079
1669285118.4987905,2967
1669285118.4996917,2815
1669285118.5016875,2639
1669285118.5236912,2447
1669285118.52469,2256
1669285118.5491512,2077
1669285118.5501418,1915
1669285118.5739691,1771
1669285118.5749705,1657
1669285118.5991316,1568
1669285118.6000848,1507
1669285118.6009395,1462
1669285118.6239755,1433
1669285118.6249697,1418
1669285118.625938,1417
1669285118.6489816,1427
1669285118.6499991,1456
1669285118.67397,1503
1669285118.699123,1741
1669285118.700125,1832
1669285118.7009404,1923
1669285118.7239377,2007
1669285118.724939,2076
1669285118.7491407,2125
1669285118.7499843,2151
1669285118.7509842,2151
1669285118.7739372,2131
1669285118.7749736,2095
1669285118.799131,2051
1669285118.7999372,1997
1669285118.8009405,1937
1669285118.8239706,1873
1669285118.824971,1809
1669285118.8599443,1751
1669285118.8759346,1608
1669285118.8989532,1577
1669285118.8999412,1561
1669285118.9239395,1565
1669285118.9249425,1577
1669285118.9489353,1592
1669285118.9499476,1608
1669285118.9509363,1627
1669285118.9739375,1644
1669285118.9749362,1654
1669285118.9999382,1680
1669285119.0239391,1691
1669285119.02495,1704
1669285119.048942,1714
1669285119.073936,1739
1669285119.0999346,1881
1669285119.100935,1998
1669285119.1239395,2159
1669285119.149937,2775
1669285119.1509385,2956
1669285119.1739368,3092
1669285119.1749375,3159
1669285119.1989355,3165
1669285119.1999373,3109
1669285119.223937,3003
1669285119.224936,2860
1669285119.225941,2691
1669285119.248938,2500
1669285119.2499433,2297
1669285119.2509358,2101
1669285119.2739341,1919
1669285119.2749348,1759
1669285119.2989905,1630
1669285119.2999895,1526
1669285119.3249407,1359
1669285119.3489964,1347
1669285119.349995,1356
1669285119.3739457,1388
1669285119.3989892,1435
1669285119.399997,1496
1669285119.4009354,1569
1669285119.4249399,1935
1669285119.4489694,2004
1669285119.474947,2098
1669285119.5039737,2073
1669285119.504971,2033
1669285119.5059423,1984
1669285119.5239406,1932
1669285119.5249395,1874
1669285119.5489912,1817
1669285119.549991,1765
1669285119.5509374,1719
1669285119.5739686,1681
1669285119.5749347,1650
1669285119.6009715,1618
1669285119.602944,1597
1669285119.6039698,1581
1669285119.6239727,1576
1669285119.624974,1576
1669285119.6489959,1582
1669285119.6499352,1592
1669285119.652936,1602
1669285119.6739686,1612
1669285119.6749349,1616
1669285119.698951,1618
1669285119.703939,1619
1669285119.7239344,1624
1669285119.72498,1632
1669285119.7259393,1638
1669285119.7490277,1645
1669285119.7499585,1663
1669285119.7509377,1699
1669285119.7739701,1769
1669285119.7749767,1884
1669285119.7990263,2045
1669285119.7999523,2249
1669285119.8049686,2475
1669285119.8239338,2703
1669285119.8249655,2910
1669285119.8489847,3077
1669285119.8499405,3188
1669285119.85095,3227
1669285119.873966,3195
1669285119.8749762,3097
1669285119.8989716,2943
1669285119.899936,2753
1669285119.9009724,2543
1669285119.9239793,2330
1669285119.9249642,2126
1669285119.9491456,1940
1669285119.9499369,1780
1669285119.9509366,1644
1669285119.9739828,1535
1669285119.9750054,1444
1669285119.998935,1375
1669285119.9999344,1327
1669285120.0009377,1301
1669285120.023941,1298
1669285120.0249379,1321
1669285120.0509453,1513
1669285120.0739443,1609
1669285120.074937,1710
1669285120.1009371,2007
1669285120.1439686,2084
1669285120.1449904,2139
1669285120.1459367,2166
1669285120.147938,2170
1669285120.173941,2155
1669285120.1749434,2118
1669285120.1999369,1947
1669285120.2009377,1886
1669285120.2239363,1828
1669285120.2489395,1773
1669285120.2499368,1724
1669285120.264948,1683
1669285120.273936,1650
1669285120.2749348,1626
1669285120.2759347,1614
1669285120.2989347,1612
1669285120.2999349,1611
1669285120.300935,1614
1669285120.3239343,1619
1669285120.3249364,1627
1669285120.3489377,1642
1669285120.3499353,1660
1669285120.374938,1698
1669285120.3989363,1698
1669285120.399935,1696
1669285120.426938,1710
1669285120.4489899,1727
1669285120.473938,1995
1669285120.4749696,2187
1669285120.4989896,2424
1669285120.523941,2678
1669285120.5249426,2924
1669285120.5259428,3140
1669285120.5489883,3312
1669285120.5499356,3426
1669285120.550936,3460
1669285120.5529604,3422
1669285120.5739665,3316
1669285120.5749362,3142
1669285120.5989869,2931
1669285120.5999527,2691
1669285120.6009362,2446
1669285120.6239367,2212
1669285120.6249397,1998
1669285120.6490045,1820
1669285120.6499698,1676
1669285120.6509361,1569
1669285120.6739736,1497
1669285120.699936,1416
1669285120.7009387,1415
1669285120.7239382,1427
1669285120.7499552,1553
1669285120.750936,1623
1669285120.783951,1699
1669285120.78494,1778
1669285120.7859368,1866
1669285120.7990336,1955
1669285120.8239367,2035
1669285120.8739364,2136
1669285120.8749363,2113
1669285120.8759372,2083
1669285120.8989387,2046
1669285120.8999453,1998
1669285120.9009447,1938
1669285120.9239407,1878
1669285120.9249403,1819
1669285120.925938,1763
1669285120.9489355,1709
1669285120.9499454,1660
1669285120.9509375,1620
1669285120.9734483,1592
1669285120.9754603,1574
1669285120.9989662,1569
1669285120.9999592,1572
1669285121.0009613,1583
1669285121.023962,1597
1669285121.0249984,1612
1669285121.0490222,1628
1669285121.049962,1640
1669285121.0519629,1654
1669285121.0740025,1668
1669285121.0749624,1681
1669285121.0990212,1690
1669285121.0999625,1690
1669285121.1009955,1681
1669285121.1239948,1669
1669285121.1250017,1664
1669285121.149021,1666
1669285121.1499617,1676
1669285121.1739986,1695
1669285121.1749623,1721
1669285121.180053,1763
1669285121.180965,1832
1669285121.2239647,1947
1669285121.224997,2111
1669285121.2259655,2314
1669285121.2489789,2553
1669285121.2499897,2812
1669285121.250974,3058
1669285121.2739987,3271
1669285121.27496,3419
1669285121.2801626,3497
1669285121.2809646,3502
1669285121.2989643,3430
1669285121.3239877,3295
1669285121.3249633,3114
1669285121.3259635,2903
1669285121.3491695,2675
1669285121.349968,2441
1669285121.3739953,2217
1669285121.3749957,2022
1669285121.3809967,1860
1669285121.4199693,1734
1669285121.4209633,1638
1669285121.4229603,1567
1669285121.423962,1518
1669285121.4249606,1489
1669285121.4491718,1476
1669285121.4499629,1477
1669285121.4509783,1491
1669285121.4739895,1521
1669285121.4749777,1567
1669285121.4990547,1626
1669285121.4999607,1699
1669285121.5239651,1776
1669285121.525964,1855
1669285121.5489943,1932
1669285121.5499613,1998
1669285121.5749826,2110
1669285121.575965,2114
1669285121.5989892,2105
1669285121.599964,2082
1669285121.6239603,2046
1669285121.6249707,1996
1669285121.625967,1937
1669285121.6739643,1763
1669285121.6749713,1716
1669285121.6759615,1676
1669285121.7039628,1598
1669285121.7239704,1586
1669285121.7499626,1567
1669285121.7740028,1569
1669285121.7749646,1574
1669285121.82397,1620
1669285121.8249655,1633
1669285121.8260183,1644
1669285121.8489954,1656
1669285121.8499615,1671
1669285121.8739998,1686
1669285121.8999608,1738
1669285121.9239695,1748
1669285121.9249687,1753
1669285121.9489615,1758
1669285121.9499621,1762
1669285121.9509647,1765
1669285121.974964,1771
1669285121.9989614,1769
1669285121.9999619,1763
1669285122.063961,2302
1669285122.0989587,2557
1669285122.0999608,2829
1669285122.1249654,3592
1669285122.1489632,3606
1669285122.1499612,3539
1669285122.1739635,3395
1669285122.1749601,3196
1669285122.1759615,2954
