timestamp,PPG
1669280779.8714256,1964
1669280779.8724234,1962
1669280779.873422,1954
1669280779.8964183,1948
1669280779.9464264,1927
1669280779.9474223,1931
1669280779.971417,1933
1669280779.97242,1932
1669280779.9734213,1936
1669280779.9964175,1939
1669280779.9974196,1938
1669280780.0214264,1935
1669280780.0224197,1929
1669280780.0254188,1921
1669280780.0464458,1914
1669280780.0474262,1904
1669280780.0714188,1895
1669280780.0964637,1891
1669280780.0974202,1892
1669280780.09842,1902
1669280780.100494,1919
1669280780.1214948,1945
1669280780.1224236,1974
1669280780.1234553,2001
1669280780.1684191,2031
1669280780.170421,2052
1669280780.1714199,2064
1669280780.1724195,2068
1669280780.1754198,2068
1669280780.200486,2064
1669280780.2014937,2057
1669280780.2214863,2046
1669280780.2224238,2031
1669280780.2234502,2021
1669280780.2464213,2007
1669280780.2474315,1993
1669280780.2714653,1980
1669280780.2724214,1968
1669280780.273421,1955
1669280780.296425,1943
1669280780.2974327,1930
1669280780.3215127,1922
1669280780.3224375,1919
1669280780.323425,1917
1669280780.3464181,1919
1669280780.3474216,1920
1669280780.3715181,1926
1669280780.3724442,1938
1669280780.3734238,1952
1669280780.3964531,1968
1669280780.403457,1980
1669280780.4214475,1988
1669280780.4224246,1991
1669280780.4234338,1992
1669280780.446469,1993
1669280780.4474545,1993
1669280780.4714186,1991
1669280780.4724214,1989
1669280780.496453,1989
1669280780.497458,1993
1669280780.4994411,1996
1669280780.5216205,1996
1669280780.5464222,1998
1669280780.5474238,1999
1669280780.5484223,1999
1669280780.550421,1995
1669280780.5714192,1983
1669280780.57242,1969
1669280780.5734203,1950
1669280780.5964224,1929
1669280780.597424,1913
1669280780.6254525,1903
1669280780.6264505,1888
1669280780.6474187,1872
1669280780.6714191,1878
1669280780.6724203,1892
1669280780.6974208,1952
1669280780.721425,1986
1669280780.7464256,2069
1669280780.7474253,2087
1669280780.771418,2100
1669280780.8084257,2087
1669280780.81042,2070
1669280780.8114188,2049
1669280780.8214185,2023
1669280780.8224235,1999
1669280780.8464212,1982
1669280780.8474267,1971
1669280780.8714206,1966
1669280780.8724384,1956
1669280780.8734214,1947
1669280780.8964226,1941
1669280780.8974354,1934
1669280780.9214218,1933
1669280780.9224243,1931
1669280780.9234498,1932
1669280780.946453,1940
1669280780.972422,1963
1669280780.9964993,1974
1669280781.0215902,1985
1669280781.0465877,1996
1669280781.0475883,1987
1669280781.0715885,1976
1669280781.0725913,1963
1669280781.0965889,1952
1669280781.1225955,1943
1669280781.1235921,1955
1669280781.146591,1966
1669280781.14759,1972
1669280781.1715922,1972
1669280781.1725907,1963
1669280781.197594,1920
1669280781.2215881,1910
1669280781.2225902,1908
1669280781.2235904,1915
1669280781.2475932,1931
1669280781.2486036,1953
1669280781.2715888,1983
1669280781.2725935,2012
1669280781.2735906,2037
1669280781.296623,2068
1669280781.2976203,2097
1669280781.3216197,2115
1669280781.3465922,2109
1669280781.3515985,2095
1669280781.3715937,2080
1669280781.3725948,2067
1669280781.3965921,2055
1669280781.3976104,2043
1669280781.4215941,2034
1669280781.4226155,2025
1669280781.423619,2015
1669280781.4246194,2005
1669280781.4485939,1994
1669280781.4505906,1982
1669280781.4715886,1974
1669280781.4725912,1966
1669280781.4965916,1952
1669280781.4976232,1946
1669280781.4986,1941
1669280781.5215888,1941
1669280781.522592,1945
1669280781.5465882,1948
1669280781.5475883,1953
1669280781.5485883,1953
1669280781.5715876,1950
1669280781.5725906,1951
1669280781.5966215,1953
1669280781.5975914,1951
1669280781.598689,1944
1669280781.6215906,1940
1669280781.622612,1938
1669280781.646588,1937
1669280781.6475892,1938
1669280781.6715894,1939
1669280781.6725929,1938
1669280781.6735919,1932
1669280781.6746383,1921
1669280781.696602,1909
1669280781.6976016,1893
1669280781.7215917,1872
1669280781.722587,1849
1669280781.723622,1830
1669280781.7465932,1810
1669280781.747593,1797
1669280781.77159,1790
1669280781.7725892,1790
1669280781.7735896,1795
1669280781.7965899,1809
1669280781.7977755,1829
1669280781.8215919,1853
1669280781.8225965,1881
1669280781.8236241,1918
1669280781.8465877,1957
1669280781.847588,1997
1669280781.8715994,2026
1669280781.8726268,2047
1669280781.8965902,2060
1669280781.897621,2066
1669280781.8995967,2070
1669280781.9235961,2062
1669280781.9465878,2051
1669280781.9475896,2037
1669280781.9966278,2002
1669280782.0215952,1991
1669280782.0225968,1978
1669280782.0236254,1966
1669280782.0255923,1959
1669280782.046588,1957
1669280782.0475922,1961
1669280782.0955958,1982
1669280782.0965943,1973
1669280782.0975902,1955
1669280782.121611,1926
1669280782.1225884,1885
1669280782.1465898,1837
1669280782.1715918,1693
1669280782.172594,1652
1669280782.1745882,1619
1669280782.196592,1590
1669280782.20459,1568
1669280782.2215924,1557
1669280782.222592,1559
1669280782.2475948,1639
1669280782.2715945,1668
1669280782.2725954,1697
1669280782.298592,1803
1669280782.3215883,1842
1669280782.3465903,1959
1669280782.3475878,1996
1669280782.371588,2030
1669280782.3975906,2178
1669280782.4215908,2208
1669280782.4225903,2228
1669280782.4465938,2242
1669280782.4475904,2249
1669280782.448593,2247
1669280782.4715896,2233
1669280782.472591,2206
1669280782.4985914,2174
1669280782.5006623,2141
1669280782.501649,2105
1669280782.5215936,2073
1669280782.5226212,2040
1669280782.5465996,2016
1669280782.5475929,2001
1669280782.5725985,1998
1669280782.5966253,2000
1669280782.5976489,1998
1669280782.64659,1954
1669280782.6475954,1944
1669280782.6485972,1941
1669280782.671595,1943
1669280782.6726213,1946
1669280782.6966248,1951
1669280782.6976116,1956
1669280782.731649,1957
1669280782.732651,1960
1669280782.733621,1965
1669280782.735649,1975
1669280782.7375913,1982
1669280782.7716043,1983
1669280782.7726195,1975
1669280782.7736194,1967
1669280782.775588,1964
1669280782.796594,1964
1669280782.7976623,1961
1669280782.8215957,1954
1669280782.8226197,1940
1669280782.8465922,1920
1669280782.8716009,1820
1669280782.8725934,1793
1669280782.89659,1771
1669280782.8976622,1760
1669280782.8986828,1765
1669280782.9215975,1783
1669280782.9226236,1809
1669280782.9465973,1851
1669280782.9476216,1899
1669280782.9486227,1947
1669280782.9715898,1991
1669280782.9725897,2033
1669280782.9967716,2071
1669280782.9977722,2103
1669280782.9995914,2124
1669280783.021642,2131
1669280783.0225945,2122
1669280783.0465922,2108
1669280783.0475905,2088
1669280783.0485954,2063
1669280783.07159,2034
1669280783.0968373,2003
1669280783.0977705,1977
1669280783.099596,1957
1669280783.1007893,1942
1669280783.1216147,1929
1669280783.1225913,1915
1669280783.1466293,1906
1669280783.1475904,1901
1669280783.1485925,1900
1669280783.17159,1903
1669280783.172589,1905
1669280783.196591,1904
1669280783.1977322,1907
1669280783.1995895,1908
1669280783.2215912,1903
1669280783.2226262,1901
1669280783.2307763,1901
1669280783.2715974,1912
1669280783.2725918,1913
1669280783.2985902,1897
1669280783.3215904,1893
1669280783.322593,1884
1669280783.3705878,1872
1669280783.3715909,1867
1669280783.3726163,1859
1669280783.3965888,1856
1669280783.3975883,1854
1669280783.398586,1848
1669280783.4215868,1845
1669280783.4475908,1831
1669280783.452587,1830
1669280783.4715915,1830
1669280783.4965868,1831
1669280783.497587,1833
1669280783.4985876,1844
1669280783.5006015,1859
1669280783.5215917,1883
1669280783.52259,1905
1669280783.5465887,1927
1669280783.5475886,1945
1669280783.5485878,1963
1669280783.5715904,1980
1669280783.57259,2000
1669280783.5966196,2015
1669280783.5976553,2025
1669280783.5985916,2029
1669280783.6215913,2029
1669280783.622619,2016
1669280783.646598,2002
1669280783.6475925,1992
1669280783.6725907,1967
1669280783.6965973,1954
1669280783.697626,1938
1669280783.6985953,1923
1669280783.7215884,1910
1669280783.746591,1898
1669280783.747591,1896
1669280783.7735906,1921
1669280783.7966225,1922
1669280783.79759,1923
1669280783.798646,1919
1669280783.8218699,1918
1669280783.8228655,1913
1669280783.8718374,1881
1669280783.8728385,1873
1669280783.9228377,1853
1669280783.9468336,1857
1669280783.947835,1858
1669280783.9488351,1857
1669280783.971836,1854
1669280784.0098357,1840
1669280784.0118418,1836
1669280784.0128376,1833
1669280784.0468364,1835
1669280784.0478373,1843
1669280784.0488372,1852
1669280784.0498347,1861
1669280784.0788383,1875
1669280784.0968385,1870
1669280784.1048384,1860
1669280784.121841,1857
1669280784.1228373,1858
1669280784.14684,1866
1669280784.1478364,1880
1669280784.1488402,1900
1669280784.171839,1923
1669280784.1728673,1945
1669280784.1968505,1963
1669280784.221839,1979
1669280784.2228665,1987
1669280784.2238643,1986
1669280784.2248397,1976
1669280784.2468343,1962
1669280784.2478333,1944
1669280784.2488396,1929
1669280784.2718375,1912
1669280784.272845,1897
1669280784.2970076,1882
1669280784.2979066,1863
1669280784.298851,1846
1669280784.3218415,1836
1669280784.3228662,1826
1669280784.3468387,1822
1669280784.347871,1822
1669280784.3488395,1829
1669280784.37184,1835
1669280784.3728662,1836
1669280784.4008403,1828
1669280784.4218507,1825
1669280784.422856,1822
1669280784.4468374,1819
1669280784.4478424,1813
1669280784.4718354,1808
1669280784.47287,1806
1669280784.4758518,1811
1669280784.4998348,1820
1669280784.501895,1829
1669280784.5028949,1836
1669280784.521835,1841
1669280784.5228677,1846
1669280784.5468354,1850
1669280784.5478344,1855
1669280784.5488334,1857
1669280784.596907,1863
1669280784.5978887,1871
1669280784.5988357,1874
1669280784.6488364,1844
1669280784.649838,1832
1669280784.6518395,1819
1669280784.6718388,1810
1669280784.6728365,1802
1669280784.6969025,1792
1669280784.697888,1786
1669280784.7228432,1787
1669280784.7468357,1790
1669280784.7478352,1800
1669280784.7488394,1814
1669280784.7718372,1834
1669280784.7728379,1858
1669280784.7968326,1884
1669280784.8218381,1940
1669280784.822836,1942
1669280784.8468356,1939
1669280784.8718517,1886
1669280784.8728387,1861
1669280784.8968344,1833
1669280784.8978357,1803
1669280784.8988326,1789
1669280784.9228346,1784
1669280784.923833,1783
1669280784.948839,1818
1669280784.9718373,1837
1669280784.9728374,1851
1669280784.9968665,1866
1669280784.9978347,1870
1669280785.0238645,1869
1669280785.0248349,1871
1669280785.0478425,1872
1669280785.071866,1870
1669280785.072848,1865
1669280785.096871,1860
1669280785.0978367,1848
1669280785.1218646,1838
1669280785.1228697,1832
1669280785.1238394,1831
1669280785.1468332,1825
1669280785.1478338,1815
1669280785.1488466,1812
1669280785.1718671,1810
1669280785.1728332,1811
1669280785.1969082,1814
1669280785.1979082,1815
1669280785.2228408,1812
1669280785.2468362,1819
1669280785.247838,1823
1669280785.2898405,1813
1669280785.2918384,1806
1669280785.2928374,1799
1669280785.3218377,1801
1669280785.346853,1818
1669280785.3478365,1830
1669280785.3488348,1844
1669280785.3718455,1857
1669280785.372834,1865
1669280785.3968322,1870
1669280785.3978362,1879
1669280785.3988369,1891
1669280785.421835,1906
1669280785.422834,1919
1669280785.4468343,1922
1669280785.4478364,1913
1669280785.4488351,1900
1669280785.4718409,1884
1669280785.4728374,1871
1669280785.496901,1855
1669280785.4979024,1839
1669280785.5218658,1825
1669280785.5228703,1811
1669280785.5468335,1798
1669280785.5478368,1786
1669280785.5529196,1778
1669280785.5538402,1777
1669280785.5718703,1780
1669280785.5728452,1784
1669280785.5968382,1788
1669280785.5979218,1793
1669280785.5988429,1802
1669280785.621865,1814
1669280785.622865,1824
1669280785.646838,1832
1669280785.6478333,1834
1669280785.6488354,1830
1669280785.69689,1825
1669280785.6980186,1823
1669280785.698859,1822
1669280785.721838,1819
1669280785.7228405,1816
1669280785.746837,1816
1669280785.747848,1813
1669280785.7488363,1807
1669280785.7718706,1805
1669280785.7728655,1803
1669280785.7969165,1803
1669280785.8218646,1809
1669280785.8228672,1816
1669280785.8238356,1822
1669280785.8248656,1822
1669280785.846835,1821
1669280785.8478425,1816
1669280785.8588393,1807
1669280785.871836,1799
1669280785.8728685,1790
1669280785.8968349,1779
1669280785.8978677,1772
1669280785.8988676,1771
1669280785.9288394,1781
1669280785.9298408,1800
1669280785.9318879,1824
1669280785.9468648,1851
1669280785.9488373,1874
1669280785.972836,1894
1669280785.9738343,1902
1669280785.9988408,1899
1669280786.0218604,1891
1669280786.0228746,1881
1669280786.0468335,1869
1669280786.047835,1861
1669280786.0488355,1854
1669280786.071834,1852
1669280786.0978684,1834
1669280786.0989032,1828
1669280786.121835,1821
1669280786.1488466,1809
1669280786.1718657,1810
1669280786.1728387,1814
1669280786.1968653,1825
1669280786.1978369,1832
1669280786.2218645,1838
1669280786.2468379,1861
1669280786.2478333,1858
1669280786.2528367,1857
1669280786.2718647,1858
1669280786.2969072,1857
1669280786.297907,1858
1669280786.2988367,1858
1669280786.3228424,1855
1669280786.3468392,1852
1669280786.3478382,1850
1669280786.3488371,1845
1669280786.3718371,1840
1669280786.3728354,1833
1669280786.398836,1828
1669280786.4218354,1820
1669280786.422836,1825
1669280786.4468338,1829
1669280786.472835,1886
1669280786.4968338,1900
1669280786.4978325,1909
1669280786.4998415,1916
1669280786.5218353,1921
1669280786.5228345,1923
1669280786.5688512,1923
1669280786.5698357,1919
1669280786.5718343,1913
1669280786.5728338,1907
1669280786.5738337,1901
1669280786.5968475,1891
1669280786.597847,1871
1669280786.6218708,1850
1669280786.6228695,1834
1669280786.6478398,1804
1669280786.6718357,1799
1669280786.6728365,1799
1669280786.6738358,1799
1669280786.6968908,1801
1669280786.6978886,1806
1669280786.7218652,1810
1669280786.7468398,1814
1669280786.7478387,1813
1669280786.7488384,1807
1669280786.7498362,1803
1669280786.7528348,1798
1669280786.7718418,1792
1669280786.7728665,1787
1669280786.7969067,1784
1669280786.797908,1784
1669280786.7989147,1786
1669280786.8228705,1790
1669280786.8238373,1794
1669280786.846834,1801
1669280786.847834,1807
1669280786.8488376,1813
1669280786.8718674,1817
1669280786.87287,1814
1669280786.8969014,1811
1669280786.8979077,1809
1669280786.8989046,1800
1669280786.9238653,1787
1669280786.9248378,1772
1669280786.9468353,1761
1669280786.9478374,1757
1669280786.9488366,1757
1669280786.9718342,1764
1669280786.9728365,1774
1669280786.9968944,1789
1669280787.0218384,1806
1669280787.022848,1826
1669280787.0278718,1845
1669280787.0288358,1863
1669280787.046838,1877
1669280787.0478377,1890
1669280787.0488372,1897
1669280787.0718377,1895
1669280787.0728393,1890
1669280787.0988855,1877
1669280787.1218684,1869
1669280787.1228569,1859
1669280787.146845,1848
1669280787.147833,1839
1669280787.1718614,1836
1669280787.1728673,1832
1669280787.1738634,1832
1669280787.2088437,1834
1669280787.210838,1836
1669280787.2118428,1835
1669280787.2128353,1830
1669280787.2468362,1823
1669280787.247838,1814
1669280787.248836,1806
1669280787.2718666,1801
1669280787.2968495,1794
1669280787.2978444,1787
1669280787.2988443,1779
1669280787.3218367,1775
1669280787.3228385,1777
1669280787.3468337,1786
1669280787.3478348,1793
1669280787.3728375,1818
1669280787.396836,1823
1669280787.3978367,1827
1669280787.422837,1831
1669280787.4468362,1840
1669280787.4728434,1878
1669280787.473838,1884
1669280787.496363,1886
1669280787.522362,1880
1669280787.5243633,1875
1669280787.5483613,1869
1669280787.5493662,1870
1669280787.5713632,1878
1669280787.5723603,1887
1669280787.5743692,1891
1669280787.5963612,1891
1669280787.5973604,1886
1669280787.6213617,1876
1669280787.622361,1868
1669280787.6243746,1865
1669280787.6463628,1867
1669280787.6473637,1864
1669280787.659358,1863
1669280787.6713576,1865
1669280787.6973622,1859
1669280787.7213917,1858
1669280787.7223656,1860
1669280787.7473645,1861
1669280787.7713664,1862
1669280787.7963896,1869
1669280787.7973902,1862
1669280787.8213892,1854
1669280787.8503683,1825
1669280787.8523643,1823
1669280787.871361,1821
1669280787.8963628,1819
1669280787.8973608,1818
1669280787.8993607,1819
1669280787.9223614,1826
1669280787.946362,1827
1669280787.947363,1830
1669280787.9753637,1833
1669280787.9763808,1834
1669280787.9783673,1836
1669280787.9963617,1843
1669280787.9973593,1851
1669280788.0213745,1855
1669280788.022361,1855
1669280788.0243607,1853
1669280788.0463617,1852
1669280788.0713663,1866
1669280788.0723648,1873
1669280788.0963717,1879
1669280788.0973597,1879
1669280788.1213605,1875
1669280788.1223602,1873
1669280788.1243608,1877
1669280788.1463587,1886
1669280788.1473663,1897
1669280788.171389,1908
1669280788.172394,1915
1669280788.1733603,1914
1669280788.1803632,1914
1669280788.1964138,1906
1669280788.2213898,1898
1669280788.2233667,1890
1669280788.2243898,1884
1669280788.246362,1880
1669280788.2473607,1875
1669280788.2713904,1870
1669280788.2723677,1866
1669280788.2743936,1865
1669280788.2963903,1865
1669280788.2973607,1864
1669280788.3213642,1860
1669280788.3463643,1859
1669280788.3473709,1859
1669280788.3494272,1858
1669280788.371398,1856
1669280788.3723667,1856
1669280788.3743978,1863
1669280788.3753994,1873
1669280788.396433,1880
1669280788.3983626,1883
1669280788.4213912,1883
1669280788.423364,1881
1669280788.4243648,1876
1669280788.446362,1871
1669280788.447363,1868
1669280788.45042,1861
1669280788.493368,1853
1669280788.4943619,1844
1669280788.4953606,1841
1669280788.4964201,1843
1669280788.5213933,1848
1669280788.5223925,1852
1669280788.5243936,1857
1669280788.54636,1867
1669280788.5473673,1873
1669280788.5713978,1877
1669280788.5723968,1883
1669280788.57437,1888
1669280788.597433,1889
1669280788.5994346,1891
1669280788.6213946,1894
1669280788.6233642,1902
1669280788.6243956,1910
1669280788.671363,1899
1669280788.673366,1895
1669280788.6743605,1893
1669280788.721361,1893
1669280788.746364,1896
1669280788.7473643,1897
1669280788.7493906,1902
1669280788.7503903,1898
1669280788.7713907,1890
1669280788.7733593,1882
1669280788.7973623,1856
1669280788.8213906,1849
1669280788.8233685,1847
1669280788.824394,1843
1669280788.8463619,1844
1669280788.8563666,1845
1669280788.8713899,1851
1669280788.8963897,1862
1669280788.8983643,1857
1669280788.9213614,1856
1669280788.9223607,1858
1669280788.9243603,1863
1669280788.9463603,1870
1669280788.9473605,1873
1669280788.9743638,1867
1669280788.996364,1861
1669280788.9973643,1857
1669280789.0473588,1843
1669280789.0743604,1844
1669280789.075368,1849
1669280789.0963602,1851
1669280789.135363,1867
1669280789.1363604,1868
1669280789.1483617,1871
1669280789.1713634,1864
1669280789.1723592,1859
1669280789.1743686,1855
1669280789.196373,1849
1669280789.19736,1843
1669280789.2213597,1854
1669280789.2263608,1872
1669280789.227363,1888
1669280789.2463596,1900
1669280789.2473598,1916
1669280789.27136,1931
1669280789.273375,1944
1669280789.2983644,1966
1669280789.3213933,1965
1669280789.3223662,1956
1669280789.3713932,1919
1669280789.3723648,1909
1669280789.3743727,1896
1669280789.4213607,1884
1669280789.4223626,1872
1669280789.4243639,1863
1669280789.4253633,1854
1669280789.4263604,1846
1669280789.4463584,1844
1669280789.447358,1852
1669280789.4713583,1863
1669280789.4723608,1877
1669280789.4743645,1889
1669280789.4963684,1902
1669280789.4983592,1910
1669280789.5213585,1917
1669280789.5463603,1913
1669280789.5483623,1907
1669280789.5713909,1902
1669280789.5733602,1896
1669280789.5743942,1891
1669280789.5964336,1889
1669280789.5983636,1884
1669280789.62139,1882
1669280789.623365,1883
1669280789.6243982,1886
1669280789.6483643,1898
1669280789.64939,1910
1669280789.6713681,1922
1669280789.6733656,1931
1669280789.6743917,1935
1669280789.7213647,1930
1669280789.7233646,1920
1669280789.7243938,1910
1669280789.773361,1899
1669280789.7743657,1892
1669280789.775362,1890
1669280789.7763646,1891
1669280789.778362,1894
1669280789.796422,1896
1669280789.7973611,1900
1669280789.82139,1910
1669280789.8233635,1921
1669280789.8243997,1935
1669280789.8463686,1953
1669280789.847364,1968
1669280789.8713953,1985
1669280789.8733685,1996
1669280789.8743973,1998
1669280789.8964348,1993
1669280789.8983774,1987
1669280789.92139,1978
1669280789.946364,1967
1669280789.947361,1953
1669280789.949363,1939
1669280789.950363,1927
1669280789.971359,1919
1669280789.9964387,1909
1669280789.998361,1903
1669280790.024367,1896
1669280790.0463626,1891
1669280790.0483735,1889
1669280790.078363,1908
1669280790.0964139,1911
1669280790.0983808,1907
1669280790.1213632,1903
1669280790.1463616,1899
1669280790.1733646,1912
1669280790.1783628,1919
1669280790.1963725,1926
1669280790.1973603,1927
1669280790.2213638,1935
1669280790.2233603,1943
1669280790.2253635,1951
1669280790.2463603,1953
1669280790.2473614,1948
1669280790.2713609,1940
1669280790.2723596,1928
1669280790.296369,1915
1669280790.2973588,1899
1669280790.299359,1886
1669280790.3213613,1888
1669280790.322364,1894
1669280790.3243618,1909
1669280790.346361,1927
1669280790.3473606,1947
1669280790.371369,1968
1669280790.3733618,1988
1669280790.4133694,2020
1669280790.4463599,2021
1669280790.4483626,2017
1669280790.4493608,2013
1669280790.4713929,2007
1669280790.4983656,1985
1669280790.521365,1979
1669280790.5233665,1970
1669280790.524394,1964
1669280790.5463605,1958
1669280790.548359,1951
1669280790.5713594,1941
1669280790.573359,1930
1669280790.574361,1917
1669280790.596434,1910
1669280790.597361,1910
1669280790.604399,1919
1669280790.621395,1928
1669280790.623358,1937
1669280790.6464012,1943
1669280790.6483588,1948
1669280790.6713955,1954
1669280790.6733603,1962
1669280790.6743772,1965
1669280790.6964324,1964
1669280790.7233586,1940
1669280790.7243989,1939
1669280790.7463639,1943
1669280790.7593708,1945
1669280790.7713912,1945
1669280790.7733638,1944
1669280790.7964375,1944
1669280790.7983754,1942
1669280790.8213916,1937
1669280790.8233633,1924
1669280790.8243606,1910
1669280790.8253903,1899
1669280790.8473594,1895
1669280790.8483584,1893
1669280790.8713973,1899
1669280790.8733633,1909
1669280790.8743646,1919
1669280790.8964214,1935
1669280790.8983877,1957
1669280790.9213898,1982
1669280790.9233637,2002
1669280790.9243639,2013
1669280790.9463634,2020
1669280790.9483774,2023
1669280790.9713955,2025
1669280790.973364,2027
1669280790.9743595,2025
1669280790.996415,2022
1669280790.9983652,2017
1669280791.0213964,2011
1669280791.022362,1999
1669280791.0504334,1985
1669280791.0513613,1967
1669280791.053365,1952
1669280791.058363,1941
1669280791.096453,1935
1669280791.1216402,1930
1669280791.1226234,1928
1669280791.1246421,1929
1669280791.1276317,1956
1669280791.1466117,1964
1669280791.1476083,1965
1669280791.1716087,1965
1669280791.1726122,1966
1669280791.1746118,1967
1669280791.196609,1967
1669280791.1976063,1961
1669280791.22164,1957
1669280791.2226102,1951
1669280791.2246153,1951
1669280791.246607,1951
1669280791.24761,1950
1669280791.2716432,1948
1669280791.321612,1958
1669280791.3226101,1951
1669280791.3466096,1952
1669280791.3516073,1958
1669280791.3526115,1961
1669280791.3546095,1958
1669280791.371633,1953
1669280791.3726075,1951
1669280791.3966098,1952
1669280791.3976054,1958
1669280791.4216056,1967
1669280791.4226058,1977
1669280791.4726129,2010
1669280791.4746163,2023
1669280791.4756207,2037
1669280791.4966166,2056
1669280791.4976084,2074
1669280791.4996243,2086
1669280791.5216413,2095
1669280791.546607,2104
1669280791.5476165,2099
1669280791.5716105,2091
1669280791.5966742,2043
1669280791.5976717,2027
1669280791.621606,2017
1669280791.6226122,2006
1669280791.625615,1999
1669280791.6466084,1994
1669280791.6476097,1987
1669280791.6926498,1981
1669280791.6946752,1973
1669280791.6956813,1968
1669280791.6966808,1963
1669280791.6976814,1958
1669280791.7216125,1959
1669280791.722638,1960
1669280791.7246106,1967
1669280791.7466092,1972
1669280791.7726147,1957
1669280791.796661,1947
1669280791.8216376,1938
1669280791.8226452,1926
1669280791.8246071,1924
1669280791.825643,1928
1669280791.8466048,1934
1669280791.8476071,1947
1669280791.8496091,1961
1669280791.8716428,1973
1669280791.8726165,1979
1669280791.8966804,1976
1669280791.9226112,1956
1669280791.9246092,1952
1669280791.9466095,1952
1669280791.9476078,1955
1669280791.9716442,1954
1669280791.972639,1951
1669280791.9976082,1952
1669280792.0216105,1948
1669280792.022609,1938
1669280792.0246105,1926
1669280792.0466313,1913
1669280792.0476315,1900
1669280792.0716074,1891
1669280792.0726075,1891
1669280792.0746067,1898
1669280792.0966122,1910
1669280792.097606,1923
1669280792.1216102,1941
1669280792.1226068,1960
1669280792.1246073,1986
1669280792.1466117,2017
1669280792.1476076,2046
1669280792.1716387,2066
1669280792.1726246,2080
1669280792.17761,2088
1669280792.199677,2099
1669280792.2216127,2106
1669280792.2466106,2109
1669280792.2476077,2106
1669280792.2496107,2105
1669280792.2506125,2100
1669280792.2516146,2092
1669280792.2716126,2086
1669280792.272621,2082
1669280792.29661,2073
1669280792.297677,2066
1669280792.2996774,2060
1669280792.3306813,2051
1669280792.3316803,2043
1669280792.3326888,2038
1669280792.3346229,2040
1669280792.3466125,2041
1669280792.371634,2039
1669280792.372607,2031
1669280792.3966734,2023
1669280792.3976085,2012
1669280792.3996773,2004
1669280792.4216387,1993
1669280792.4226432,1981
1669280792.4246113,1971
1669280792.4466078,1963
1669280792.447637,1956
1669280792.4716387,1949
1669280792.4726171,1944
1669280792.47461,1942
1669280792.4966104,1942
1669280792.49764,1935
1669280792.5216124,1928
1669280792.5226383,1924
1669280792.5466077,1926
1669280792.5476086,1929
1669280792.5496097,1930
1669280792.5716093,1929
1669280792.57361,1925
1669280792.5746107,1919
1669280792.5966678,1913
1669280792.597608,1914
1669280792.6226401,1919
1669280792.6246426,1936
1669280792.6466112,1963
1669280792.6476328,1993
1669280792.649608,2026
1669280792.671643,2057
1669280792.6736095,2086
1669280792.6746104,2109
1669280792.696641,2128
1669280792.6976411,2133
1669280792.721642,2131
1669280792.7226415,2116
1669280792.7306714,2104
1669280792.746608,2091
1669280792.7476406,2079
1669280792.771643,2072
1669280792.772613,2061
1669280792.7966392,2049
1669280792.7976434,2038
1669280792.822612,1999
1669280792.846638,1992
1669280792.8476057,1993
1669280792.874613,1991
1669280792.921611,1988
1669280792.9226205,1994
1669280792.9696412,2000
1669280792.9726098,2010
1669280792.9746118,2006
1669280792.9966383,2005
1669280792.9976435,1999
1669280792.9996133,1984
1669280793.0216136,1969
1669280793.0226157,1953
1669280793.0716138,1917
1669280793.0726125,1915
1669280793.0756166,1913
1669280793.0966074,1913
1669280793.09761,1908
1669280793.1216068,1904
1669280793.1566117,1894
1669280793.1576133,1896
1669280793.1716087,1901
1669280793.1966178,1902
1669280793.1976056,1902
1669280793.199615,1898
1669280793.2216098,1892
1669280793.2226071,1886
1669280793.246607,1891
1669280793.2476058,1904
1669280793.2496753,1924
1669280793.2716134,1948
1669280793.296612,1973
1669280793.29761,1997
1669280793.2996082,2023
1669280793.3016102,2053
1669280793.3216114,2080
1669280793.322639,2100
1669280793.3466117,2113
1669280793.365665,2119
1669280793.3666089,2117
1669280793.3676088,2115
1669280793.3696434,2113
1669280793.39668,2110
1669280793.3976429,2101
1669280793.3996766,2091
1669280793.421643,2082
1669280793.4226494,2068
1669280793.4466074,2059
1669280793.4476378,2050
1669280793.4496722,2043
1669280793.4716375,2034
1669280793.4736063,2027
1669280793.4966862,2019
1669280793.4976423,2010
1669280793.4996855,2002
1669280793.5216436,1996
1669280793.5226493,1991
1669280793.5466113,1985
1669280793.5476105,1981
1669280793.549675,1982
1669280793.5716484,1983
1669280793.5726151,1985
1669280793.609611,1985
1669280793.6216402,1968
1669280793.646664,1962
1669280793.6476402,1953
1669280793.649611,1948
1669280793.6726108,1944
1669280793.6726108,1945
1669280793.6776097,1946
1669280793.6966696,1948
1669280793.6986141,1947
1669280793.7216394,1946
1669280793.7226427,1940
1669280793.7466047,1937
1669280793.747694,1933
1669280793.749703,1930
1669280793.7816072,1899
1669280793.7966514,1891
1669280793.797647,1888
1669280793.84661,1898
1669280793.8476117,1896
1669280793.8496425,1891
1669280793.8716063,1886
1669280793.872608,1881
1669280793.8966491,1877
1669280793.897637,1875
1669280793.9026372,1875
1669280793.9216442,1880
1669280793.922648,1887
1669280793.946608,1896
1669280793.947607,1906
1669280793.949643,1923
1669280793.9746077,1946
1669280793.9966714,1973
1669280793.997642,2002
1669280793.9996808,2031
1669280794.0216484,2058
1669280794.0226462,2084
1669280794.0246418,2101
1669280794.0466087,2107
1669280794.0476441,2108
1669280794.049671,2102
1669280794.0716112,2086
1669280794.0736225,2060
1669280794.1026103,1984
1669280794.12161,1969
1669280794.122645,1960
1669280794.1476068,1949
1669280794.1716342,1949
1669280794.1966102,1967
1669280794.1976397,1969
1669280794.221609,1966
1669280794.2816093,1942
1669280794.2826102,1942
1669280794.2846103,1943
1669280794.289614,1943
1669280794.321614,1943
1669280794.346609,1920
1669280794.3476152,1916
1669280794.37161,1915
1669280794.396616,1916
1669280794.397606,1916
1669280794.3996065,1916
1669280794.4006073,1917
1669280794.4226124,1918
1669280794.4466116,1912
1669280794.4476113,1903
1669280794.4736114,1887
1669280794.488609,1880
1669280794.5276084,1866
1669280794.5296242,1860
1669280794.5306213,1854
1669280794.5466082,1852
1669280794.5476086,1855
1669280794.5716069,1859
1669280794.5726092,1859
1669280794.5966806,1854
1669280794.5976443,1851
1669280794.5996804,1852
1669280794.6216416,1859
1669280794.6226506,1868
1669280794.6496093,1926
1669280794.6716118,1945
1669280794.672624,1963
1669280794.6966672,1982
1669280794.6976366,1999
1669280794.6996758,2010
1669280794.7216396,2020
1669280794.722638,2019
1669280794.7466063,2014
1669280794.7476099,2006
1669280794.7496808,1994
1669280794.7726088,1986
1669280794.7976081,1953
1669280794.7996082,1940
1669280794.8216126,1927
1669280794.82261,1912
1669280794.8896062,1902
1669280794.8906074,1899
1669280794.8916066,1900
1669280794.892607,1898
1669280794.894606,1894
1669280794.9216075,1870
1669280794.9226124,1869
1669280794.924605,1868
1669280794.950611,1868
1669280794.9516098,1871
1669280794.9526093,1871
1669280794.9716134,1873
1669280794.972615,1877
1669280794.996675,1878
1669280794.997637,1875
1669280794.9996746,1868
1669280795.021644,1867
1669280795.0226123,1871
1669280795.0466378,1876
1669280795.047637,1878
1669280795.049682,1877
1669280795.0716448,1873
1669280795.0726116,1868
1669280795.0966778,1872
1669280795.097637,1878
1669280795.0996816,1879
1669280795.1216428,1875
1669280795.122648,1868
1669280795.1716132,1850
1669280795.1966808,1851
1669280795.1976087,1853
1669280795.2016118,1862
1669280795.2216403,1867
1669280795.2226157,1868
1669280795.2466075,1870
1669280795.2476068,1864
1669280795.2496064,1852
1669280795.273618,1837
1669280795.2746077,1826
1669280795.296667,1819
1669280795.2976382,1820
1669280795.2996423,1824
1669280795.321642,1833
1669280795.3226123,1848
1669280795.3466074,1869
1669280795.3476064,1893
1669280795.3506105,1921
1669280795.3716063,1943
1669280795.3736095,1962
1669280795.3816102,1979
1669280795.396675,1987
1669280795.3996377,1989
1669280795.4466097,1971
1669280795.4476082,1962
1669280795.473623,1946
1669280795.4966695,1932
1669280795.497637,1919
1669280795.530609,1866
1669280795.5316622,1848
1669280795.546616,1833
1669280795.5476124,1823
1669280795.5716414,1820
1669280795.5726187,1817
1669280795.596683,1819
1669280795.621639,1843
1669280795.6226182,1852
1669280795.6466084,1867
1669280795.647609,1875
1669280795.649608,1879
1669280795.671609,1881
1669280795.67261,1879
1669280795.696606,1878
1669280795.6976068,1871
1669280795.6996062,1867
1669280795.721605,1865
1669280795.7226107,1859
1669280795.7466059,1859
1669280795.7476056,1859
1669280795.7496068,1858
1669280795.771618,1855
1669280795.7976115,1856
1669280795.7996097,1861
1669280795.8216074,1866
1669280795.8476126,1874
1669280795.84961,1879
1669280795.8716156,1882
1669280795.8726163,1886
1669280795.8996103,1889
1669280795.9006128,1890
1669280795.9016092,1885
1669280795.9216065,1876
1669280795.9226117,1864
1669280795.9466374,1860
1669280795.9486125,1858
1669280795.9496126,1862
1669280795.971645,1868
1669280795.9726176,1878
1669280795.9966805,1894
1669280795.997609,1918
1669280796.0026438,1941
1669280796.0216417,1966
1669280796.022616,1986
1669280796.0466065,1997
1669280796.072611,2001
1669280796.0966883,1955
1669280796.1216094,1916
1669280796.1226077,1902
1669280796.1696374,1887
1669280796.1706426,1870
1669280796.171638,1858
1669280796.172618,1850
1669280796.1746109,1847
1669280796.1966803,1847
1669280796.1986125,1854
1669280796.1996057,1863
1669280796.2216425,1874
1669280796.2236135,1874
1669280796.2466078,1869
1669280796.2476096,1862
1669280796.2496097,1864
1669280796.2716446,1870
1669280796.2736106,1876
1669280796.29668,1882
1669280796.298615,1887
1669280796.299609,1890
1669280796.3236117,1887
1669280796.3246436,1881
1669280796.3466117,1873
1669280796.3476126,1863
1669280796.3496118,1854
1669280796.3716407,1847
1669280796.3726144,1843
1669280796.3967092,1842
1669280796.397608,1841
1669280796.3996067,1838
1669280796.4296353,1823
1669280796.446615,1815
1669280796.4716408,1809
1669280796.4736154,1805
1669280796.4746199,1808
1669280796.4966056,1813
1669280796.4976072,1817
1669280796.5006254,1819
1669280796.521625,1816
1669280796.5466058,1813
1669280796.5476093,1812
1669280796.5496109,1809
1669280796.5506122,1803
1669280796.5716162,1795
1669280796.572614,1795
1669280796.5966067,1801
1669280796.5976403,1818
1669280796.599642,1836
1669280796.6216447,1849
1669280796.6226127,1860
1669280796.6466076,1873
1669280796.6716108,1904
1669280796.6726158,1918
1669280796.6966617,1928
1669280796.7216115,1924
1669280796.7226112,1910
1669280796.7496068,1858
1669280796.771609,1840
1669280796.7736151,1829
1669280796.8216078,1819
1669280796.8226159,1818
1669280796.8246129,1817
1669280796.8466084,1816
1669280796.8476086,1814
1669280796.8496077,1814
1669280796.871614,1818
1669280796.899608,1847
1669280796.9216099,1853
1669280796.9226098,1853
1669280796.9466083,1846
1669280796.9476066,1837
1669280796.9716086,1834
1669280796.9966207,1830
1669280796.9976077,1830
1669280796.9996123,1832
1669280797.0216093,1834
1669280797.0226123,1836
1669280797.0506096,1840
1669280797.0516078,1840
1669280797.0736134,1835
1669280797.0966618,1833
1669280797.0976439,1824
1669280797.1466088,1797
1669280797.1516092,1792
1669280797.1526072,1786
1669280797.1716092,1785
1669280797.1736124,1791
1669280797.1746128,1797
1669280797.1966076,1809
1669280797.2286098,1857
1669280797.2466044,1879
1669280797.2476065,1899
1669280797.2496107,1918
1669280797.27261,1928
1669280797.273612,1935
1669280797.2966137,1934
1669280797.297605,1923
1669280797.2996092,1907
1669280797.3216426,1891
1669280797.3236127,1872
1669280797.346637,1857
1669280797.348611,1839
1669280797.349608,1825
1669280797.3716145,1811
1669280797.3736162,1798
1669280797.3966804,1789
1669280797.3986137,1786
1669280797.421646,1786
1669280797.4236143,1793
1669280797.4246109,1801
1669280797.449608,1808
1669280797.450639,1814
1669280797.4536161,1816
1669280797.471614,1821
1669280797.4726133,1824
1669280797.4966877,1825
1669280797.4986153,1828
1669280797.5216465,1829
1669280797.523612,1826
1669280797.524611,1822
1669280797.5466115,1820
1669280797.548611,1818
1669280797.5496125,1822
1669280797.596661,1827
1669280797.5976398,1829
1669280797.5996077,1824
1669280797.6006083,1823
1669280797.6036115,1819
1669280797.621638,1812
1669280797.623612,1806
1669280797.6466079,1799
1669280797.648611,1791
1669280797.6496115,1786
1669280797.6736166,1783
1669280797.6746576,1788
1669280797.6966417,1795
1669280797.6986115,1793
1669280797.699612,1789
1669280797.7216425,1789
1669280797.7236123,1791
1669280797.746608,1794
1669280797.7486117,1793
1669280797.7496133,1795
1669280797.7716076,1803
1669280797.7776103,1815
1669280797.7786129,1831
1669280797.7966423,1847
1669280797.8216364,1859
1669280797.823612,1866
1669280797.8246381,1868
1669280797.8466077,1866
1669280797.8486083,1862
1669280797.8506083,1860
1669280797.871611,1860
1669280797.8966417,1860
1669280797.8986087,1853
1669280797.921613,1849
1669280797.9236116,1843
1669280797.9246185,1836
1669280797.9256065,1828
1669280797.9466083,1819
1669280797.9486134,1807
1669280797.9716487,1795
1669280797.973607,1787
1669280797.9746232,1787
1669280797.9966114,1787
1669280797.9976094,1790
1669280798.0216076,1793
1669280798.0466058,1807
1669280798.0476096,1805
1669280798.0896087,1802
1669280798.093627,1788
1669280798.0946171,1780
1669280798.1216161,1778
1669280798.12362,1781
1669280798.1246083,1788
1669280798.1466067,1801
1669280798.1486092,1811
1669280798.173621,1835
1669280798.196616,1837
1669280798.1976085,1838
1669280798.1996064,1839
1669280798.2216156,1842
1669280798.22361,1843
1669280798.2466068,1847
1669280798.2716107,1869
1669280798.2726088,1878
1669280798.2966754,1890
1669280798.3216157,1926
1669280798.3226173,1936
1669280798.3466098,1936
1669280798.3486106,1917
1669280798.3716142,1895
1669280798.372611,1876
1669280798.374616,1868
1669280798.3966062,1863
1669280798.3976142,1857
1669280798.4216065,1850
1669280798.4236126,1840
1669280798.4466069,1825
1669280798.471615,1772
1669280798.4736147,1754
1669280798.4986093,1738
1669280798.5216117,1737
1669280798.5236106,1740
1669280798.5246167,1741
1669280798.5466099,1743
1669280798.5486093,1746
1669280798.5716188,1751
1669280798.5986123,1778
1669280798.6216118,1782
1669280798.6486084,1806
1669280798.6716077,1820
1669280798.6736124,1832
1669280798.6746097,1840
1669280798.6966128,1853
1669280798.6986086,1859
1669280798.7346077,1866
1669280798.7356095,1865
1669280798.746609,1859
1669280798.7716155,1853
1669280798.7736464,1850
1669280798.7746143,1847
1669280798.796682,1844
1669280798.7986138,1837
1669280798.8216438,1823
1669280798.8236463,1807
1669280798.8246102,1801
1669280798.8466077,1799
1669280798.8486109,1794
1669280798.8716087,1791
1669280798.873608,1789
1669280798.8966835,1787
1669280798.8986118,1787
1669280798.8996122,1784
1669280798.9216115,1782
1669280798.9236488,1784
1669280798.9246726,1791
1669280798.9466405,1803
1669280798.9486108,1816
1669280798.9716082,1832
1669280798.9736066,1844
1669280798.9746096,1852
1669280798.996681,1850
1669280798.9986122,1846
1669280799.021611,1841
1669280799.0236456,1834
1669280799.024668,1826
1669280799.0466094,1820
1669280799.0486073,1813
1669280799.0716364,1809
1669280799.0736098,1804
1669280799.0746055,1801
1669280799.096674,1798
1669280799.0986114,1789
1669280799.1216497,1777
1669280799.1236467,1764
1669280799.1246111,1752
1669280799.1466053,1742
1669280799.1486065,1734
1669280799.171607,1732
1669280799.17361,1734
1669280799.1966746,1739
1669280799.1986117,1746
1669280799.199613,1753
1669280799.2216136,1753
1669280799.223651,1745
1669280799.2246084,1740
1669280799.2466047,1738
1669280799.2486105,1739
1669280799.2716115,1741
1669280799.2736132,1742
1669280799.2746153,1745
1669280799.2966797,1749
1669280799.2986112,1760
1669280799.3216624,1770
1669280799.3236418,1772
1669280799.324645,1775
1669280799.3736057,1778
1669280799.3766093,1783
1669280799.3786092,1783
1669280799.3966086,1784
1669280799.3986104,1782
1669280799.421608,1777
1669280799.423611,1777
1669280799.42461,1781
1669280799.4466085,1790
1669280799.4486296,1796
1669280799.4716125,1803
1669280799.4736154,1812
1669280799.4746556,1816
1669280799.4966807,1817
1669280799.4986093,1820
1669280799.5216477,1820
1669280799.5236068,1819
1669280799.5486093,1839
1669280799.5746107,1849
1669280799.5756116,1860
1669280799.5986102,1866
1669280799.621619,1862
1669280799.6466606,1835
1669280799.6486063,1827
1669280799.6716087,1821
1669280799.6966047,1816
1669280799.698608,1812
1669280799.6996057,1808
1669280799.7006078,1805
1669280799.721605,1800
1669280799.723606,1799
1669280799.7246058,1795
1669280799.7466075,1793
1669280799.7486095,1792
1669280799.7966738,1813
1669280799.7986078,1815
1669280799.8216112,1817
1669280799.8236127,1823
1669280799.82461,1837
1669280799.8466413,1850
1669280799.873612,1849
1669280799.874614,1846
1669280799.8966668,1844
1669280799.9466078,1846
1669280799.9486074,1854
1669280799.9716117,1864
1669280799.9736204,1876
1669280799.9746103,1884
1669280800.0156105,1895
1669280800.0166388,1887
1669280800.046608,1878
1669280800.0486078,1871
1669280800.050641,1868
1669280800.0716162,1866
1669280800.0736122,1860
1669280800.0746133,1849
1669280800.096668,1841
1669280800.0986109,1838
1669280800.1216404,1845
1669280800.1236115,1853
1669280800.1246195,1861
1669280800.1466427,1870
1669280800.1486144,1876
1669280800.1716146,1882
1669280800.1736443,1885
1669280800.1746109,1884
1669280800.1966803,1883
1669280800.1986108,1878
1669280800.221611,1868
1669280800.2236462,1856
1669280800.2246082,1844
1669280800.2466402,1834
1669280800.2556455,1828
1669280800.2726195,1823
1669280800.2736127,1819
1669280800.2746375,1815
1669280800.2966735,1813
1669280800.29861,1811
1669280800.307618,1809
1669280800.3216267,1811
1669280800.3236513,1816
1669280800.3466082,1824
1669280800.348608,1834
1669280800.372633,1842
1669280800.3736494,1852
1669280800.3756106,1859
1669280800.3966646,1864
1669280800.3986216,1873
1669280800.4216106,1883
1669280800.4236507,1888
1669280800.4466083,1894
1669280800.471615,1899
1669280800.4966803,1900
1669280800.498608,1897
1669280800.4996107,1889
1669280800.5006428,1878
1669280800.501643,1867
1669280800.5036411,1854
1669280800.5216236,1841
1669280800.5236619,1828
1669280800.5246086,1813
1669280800.571621,1780
1669280800.5736103,1776
1669280800.57462,1776
1669280800.5966063,1780
1669280800.598607,1795
1669280800.621611,1814
1669280800.6236086,1832
1669280800.6246133,1844
1669280800.6496065,1853
1669280800.650645,1852
1669280800.6536531,1849
1669280800.6716142,1842
1669280800.6966157,1840
1669280800.6986065,1846
1669280800.6996076,1856
1669280800.7256093,1867
1669280800.746606,1893
1669280800.748607,1901
1669280800.7716131,1909
1669280800.7736144,1908
1669280800.7746112,1904
1669280800.7966235,1903
1669280800.7986085,1898
1669280800.82461,1872
1669280800.8466084,1860
1669280800.848612,1848
1669280800.8746307,1814
1669280800.8966203,1809
1669280800.9236143,1809
1669280800.9246228,1808
1669280800.9466074,1808
1669280800.9966202,1803
1669280800.9986055,1809
1669280801.021611,1817
1669280801.0236077,1822
1669280801.0246077,1826
1669280801.0466383,1828
1669280801.0486138,1830
1669280801.0726163,1837
1669280801.073646,1842
1669280801.07461,1848
1669280801.096681,1858
1669280801.098611,1865
1669280801.1216376,1871
1669280801.1466367,1874
1669280801.1506305,1856
1669280801.171643,1855
1669280801.1736403,1857
1669280801.198611,1863
1669280801.2216082,1869
1669280801.246606,1872
1669280801.2486093,1871
1669280801.2896147,1871
1669280801.3226085,1886
1669280801.3236074,1894
1669280801.3246088,1902
1669280801.325605,1908
1669280801.3466072,1914
1669280801.3486087,1915
1669280801.3716142,1911
1669280801.3966167,1903
1669280801.3986092,1894
1669280801.3996096,1889
1669280801.4006088,1887
1669280801.4216096,1885
1669280801.4236085,1876
1669280801.4246209,1868
1669280801.449643,1859
1669280801.450638,1852
1669280801.471619,1843
1669280801.473639,1836
1669280801.485608,1830
1669280801.497612,1830
1669280801.4986148,1828
1669280801.521607,1826
1669280801.5236077,1822
1669280801.5246062,1825
1669280801.5466063,1832
1669280801.5486102,1840
1669280801.5716214,1850
1669280801.5736492,1854
1669280801.5746098,1853
1669280801.5977182,1845
1669280801.5986097,1833
1669280801.6226153,1824
1669280801.6466417,1817
1669280801.6486156,1814
1669280801.6496453,1816
1669280801.6726134,1821
1669280801.6736088,1824
1669280801.674607,1827
1669280801.675608,1828
1669280801.6976886,1832
1669280801.6986122,1837
1669280801.722614,1840
1669280801.723625,1844
1669280801.724619,1852
1669280801.747668,1858
1669280801.7486265,1861
1669280801.7726116,1862
1669280801.773649,1861
1669280801.774649,1855
1669280801.79761,1853
1669280801.7986076,1854
1669280801.8226235,1854
1669280801.823641,1851
1669280801.824606,1849
1669280801.8466058,1849
1669280801.8486104,1853
1669280801.871619,1865
1669280801.8736465,1882
1669280801.8746078,1897
1669280801.8976445,1908
1669280801.8986216,1920
1669280801.9316092,1952
1669280801.9476154,1954
1669280801.9486115,1955
1669280801.9746065,1949
1669280801.9756067,1943
1669280801.9766104,1937
1669280801.9976323,1928
1669280802.007663,1918
1669280802.0216112,1907
1669280802.0236125,1898
1669280802.047616,1890
1669280802.0486102,1884
1669280802.0496426,1880
1669280802.0726063,1877
1669280802.0736573,1872
1669280802.08061,1869
1669280802.1216357,1868
1669280802.123609,1862
1669280802.1246397,1854
1669280802.1726136,1835
1669280802.173643,1836
1669280802.1986127,1842
1669280802.222613,1845
1669280802.2236419,1849
1669280802.248609,1853
1669280802.2716136,1857
1669280802.2736106,1860
1669280802.274609,1863
1669280802.2966537,1866
1669280802.2986083,1865
1669280802.3226082,1864
1669280802.3466074,1852
1669280802.3486118,1850
1669280802.3716128,1857
1669280802.373611,1872
1669280802.3746188,1889
1669280802.396606,1907
1669280802.4226067,1913
1669280802.4236095,1917
1669280802.446606,1917
1669280802.4486198,1916
1669280802.4496067,1910
1669280802.4506059,1901
1669280802.4726074,1897
1669280802.4736147,1896
1669280802.496674,1900
1669280802.4986112,1906
1669280802.5236068,1933
1669280802.5256681,1940
1669280802.5696144,1942
1669280802.598607,1922
1669280802.599647,1913
1669280802.6226103,1906
1669280802.623642,1898
1669280802.646608,1891
1669280802.6486158,1891
1669280802.6496131,1880
1669280802.672616,1879
1669280802.6736174,1879
1669280802.6746078,1879
1669280802.69662,1878
1669280802.6986132,1875
1669280802.7256825,1877
1669280802.7266092,1880
1669280802.7286093,1880
1669280802.7466419,1876
1669280802.7486112,1872
1669280802.7726126,1869
1669280802.7736106,1869
1669280802.798612,1853
1669280802.8216438,1845
1669280802.8266091,1840
1669280802.8286085,1837
1669280802.846608,1831
1669280802.8486152,1829
1669280802.8726115,1828
1669280802.8736393,1830
1669280802.8966823,1838
1669280802.8986208,1847
1669280802.9226115,1855
1669280802.9236808,1861
1669280802.9246848,1864
1669280802.9296834,1865
1669280802.9466372,1858
1669280802.9486127,1855
1669280802.9726121,1855
1669280802.9736466,1864
1669280802.9746065,1880
1669280802.9966805,1895
1669280802.9986117,1907
1669280803.022633,1911
1669280803.023614,1912
1669280803.031624,1910
1669280803.0467038,1906
1669280803.0486093,1904
1669280803.072617,1899
1669280803.073626,1893
1669280803.0966682,1883
1669280803.0986123,1876
1669280803.0996416,1876
1669280803.1226237,1885
1669280803.1236072,1902
1669280803.14664,1919
1669280803.148626,1939
1669280803.1496413,1955
1669280803.172613,1966
1669280803.1736088,1970
1669280803.2096076,1974
1669280803.2106082,1972
1669280803.2116065,1965
1669280803.213605,1954
1669280803.222631,1943
1669280803.2466075,1926
1669280803.2486112,1911
1669280803.2496421,1901
1669280803.2726133,1889
1669280803.2736056,1879
1669280803.2756093,1870
1669280803.2966816,1862
1669280803.2986135,1855
1669280803.3226135,1854
1669280803.32361,1857
1669280803.324668,1857
1669280803.3506105,1853
1669280803.3516054,1850
1669280803.3726156,1847
1669280803.396608,1860
1669280803.4226325,1861
1669280803.423642,1864
1669280803.4466076,1882
1669280803.4486113,1884
1669280803.4726317,1886
1669280803.4736187,1887
1669280803.4966812,1884
1669280803.4986122,1881
1669280803.4996467,1878
1669280803.5246096,1882
1669280803.546608,1888
1669280803.548608,1893
1669280803.5716116,1896
1669280803.573611,1897
1669280803.5966074,1897
1669280803.5986102,1898
1669280803.6466064,1906
1669280803.6486092,1905
1669280803.6496077,1904
1669280803.6726115,1899
1669280803.6736166,1892
1669280803.696613,1883
1669280803.722614,1878
1669280803.7236567,1877
1669280803.7246845,1880
1669280803.7256818,1888
1669280803.7466366,1901
1669280803.7486138,1913
1669280803.749645,1925
1669280803.7726154,1943
1669280803.79861,2004
1669280803.8216417,2009
1669280803.8236935,2004
1669280803.8716123,1947
1669280803.872617,1933
1669280803.8786101,1921
1669280803.8966196,1919
1669280803.898623,1917
1669280803.9216151,1919
1669280803.948611,1910
1669280803.972617,1908
1669280803.9736423,1907
1669280803.9966166,1904
1669280803.9986076,1902
1669280803.999609,1902
1669280804.0226128,1906
1669280804.0236087,1908
1669280804.047611,1915
1669280804.048611,1919
1669280804.0496428,1921
1669280804.072619,1922
1669280804.073622,1919
1669280804.0966978,1918
1669280804.098613,1920
1669280804.099643,1924
1669280804.1226122,1922
1669280804.123693,1916
1669280804.1476107,1911
1669280804.1486363,1900
1669280804.172616,1887
1669280804.1736102,1881
1669280804.1968148,1883
1669280804.1986115,1891
1669280804.1996434,1901
1669280804.2006416,1911
1669280804.222616,1919
1669280804.2236724,1923
1669280804.2476232,1925
1669280804.2486105,1920
1669280804.2496426,1911
1669280804.272611,1903
1669280804.2736478,1901
1669280804.2976313,1907
1669280804.2986112,1917
1669280804.2996361,1927
1669280804.3216457,1934
1669280804.3237913,1941
1669280804.347625,1951
1669280804.3486252,1965
1669280804.3496413,1977
1669280804.3726115,1984
1669280804.3736074,1987
1669280804.3967652,1984
1669280804.4026093,1981
1669280804.4226084,1972
1669280804.4466085,1961
1669280804.448622,1948
1669280804.4496403,1937
1669280804.4506407,1928
1669280804.4516108,1922
1669280804.4896615,1916
1669280804.4906473,1910
1669280804.492613,1903
1669280804.4937,1895
1669280804.5226135,1889
1669280804.5236092,1887
1669280804.5247028,1890
1669280804.5466046,1893
1669280804.5486126,1897
1669280804.5496113,1902
1669280804.5726106,1903
1669280804.573642,1901
1669280804.5976295,1903
1669280804.5986125,1906
1669280804.5996258,1908
1669280804.6226187,1907
1669280804.6236408,1908
1669280804.6476145,1901
1669280804.648642,1894
1669280804.6496415,1890
1669280804.6726098,1884
1669280804.6736507,1880
1669280804.6966136,1879
1669280804.6986115,1881
1669280804.6996424,1884
1669280804.722613,1885
1669280804.7236362,1886
1669280804.7476103,1886
1669280804.7726135,1889
1669280804.7736375,1892
1669280804.7976115,1896
1669280804.8256676,1907
1669280804.827622,1906
1669280804.8286104,1900
1669280804.8466089,1894
1669280804.8716147,1889
1669280804.8736117,1887
1669280804.8976068,1884
1669280804.8986094,1883
1669280804.8996067,1878
1669280804.913608,1870
1669280804.922609,1867
1669280804.9236083,1873
1669280804.9306066,1889
1669280804.9466093,1913
1669280804.9486117,1930
1669280804.9726105,1944
1669280804.998611,1981
1669280804.999609,1990
1669280805.02261,1996
1669280805.0486083,1964
1669280805.0496156,1944
1669280805.072611,1921
1669280805.0736475,1904
1669280805.0976114,1892
1669280805.0986443,1886
1669280805.0996373,1882
1669280805.1296659,1882
1669280805.1306107,1882
1669280805.1316407,1882
1669280805.1466377,1884
1669280805.1486113,1891
1669280805.1726177,1904
1669280805.1736126,1920
1669280805.1966093,1935
1669280805.1986096,1948
1669280805.223665,1955
1669280805.2476087,1949
1669280805.248611,1938
1669280805.2506077,1926
1669280805.2976093,1913
1669280805.2986102,1889
1669280805.2996376,1847
1669280805.322612,1645
1669280805.323611,1558
1669280805.3496442,1482
1669280805.3736205,1413
1669280805.396611,1452
1669280805.3986094,1505
1669280805.39961,1563
1669280805.4226127,1628
1669280805.4236805,1693
1669280805.4536104,1874
1669280805.4726121,1930
1669280805.4736104,1988
1669280805.4966083,2042
1669280805.4986107,2088
1669280805.4996102,2127
1669280805.5216153,2163
1669280805.5236113,2194
1669280805.546606,2221
1669280805.5486155,2240
1669280805.5496078,2254
1669280805.5556118,2256
1669280805.5726168,2249
1669280805.5976112,2240
1669280805.5986094,2230
1669280805.5996354,2220
1669280805.6226084,2207
1669280805.6236634,2189
1669280805.647612,2167
1669280805.6486108,2144
1669280805.6496375,2125
1669280805.6726115,2105
1669280805.6736097,2089
1669280805.6976135,2071
1669280805.6986434,2054
1669280805.699643,2039
1669280805.72261,2030
1669280805.7736807,2023
1669280805.7746809,2022
1669280805.7756422,2018
1669280805.7776704,2014
1669280805.7786424,2008
1669280805.7796102,2000
1669280805.7976065,1991
1669280805.79861,1986
1669280805.7996418,1983
1669280805.822619,1982
1669280805.8236675,1978
1669280805.8476238,1977
1669280805.8486285,1972
1669280805.8496416,1974
1669280805.8726134,1975
1669280805.873609,1973
1669280805.897612,1974
1669280805.8986127,1974
1669280805.8996434,1970
1669280805.9226139,1968
1669280805.9236746,1965
1669280805.9496331,1959
1669280805.9726083,1963
1669280805.9736063,1962
1669280805.9996154,1954
1669280806.0226064,1948
1669280806.0486283,1942
1669280806.049608,1937
1669280806.0726104,1935
1669280806.098616,1947
1669280806.0996168,1949
1669280806.1226125,1956
1669280806.1236107,1964
1669280806.1466103,1975
1669280806.1486459,1989
1669280806.1726115,2007
1669280806.173606,2024
1669280806.1746085,2035
1669280806.196608,2043
1669280806.19861,2044
1669280806.1996474,2036
1669280806.22261,2025
1669280806.2236814,2010
1669280806.2476108,1994
1669280806.2486107,1971
1669280806.2776058,1949
1669280806.2786062,1950
1669280806.2976322,1952
1669280806.3236089,1944
1669280806.347612,1945
1669280806.3486183,1950
1669280806.3496115,1958
1669280806.3726454,1969
1669280806.3736105,1983
1669280806.4096076,1998
1669280806.44761,2005
1669280806.448608,2004
1669280806.44961,2002
1669280806.4506097,1995
1669280806.4726088,1991
1669280806.4736087,1992
1669280806.49761,1993
1669280806.52261,1985
1669280806.5236092,1977
1669280806.5256128,1969
1669280806.547608,1957
1669280806.5486069,1951
1669280806.5496082,1946
1669280806.5506072,1945
1669280806.5726085,1945
1669280806.5986135,1914
1669280806.5996392,1895
1669280806.6226115,1876
1669280806.6486113,1855
1669280806.6496089,1859
1669280806.672611,1871
1669280806.6736114,1892
1669280806.6986115,1922
1669280806.6996112,1954
1669280806.7006142,1985
1669280806.7476084,2056
1669280806.7726462,2083
1669280806.7736385,2078
1669280806.7976377,2064
1669280806.79861,2048
1669280806.8036437,2034
1669280806.822643,2021
1669280806.823681,2007
1669280806.8476386,1993
1669280806.8486152,1977
1669280806.849643,1964
1669280806.87261,1951
1669280806.873606,1941
1669280806.8976438,1933
1669280806.898613,1924
1669280806.899615,1917
1669280806.922674,1912
1669280806.9236693,1907
1669280806.9476173,1905
1669280806.9486246,1910
1669280806.9726079,1916
1669280806.973608,1923
1669280806.9976382,1929
1669280806.99861,1933
1669280806.9996397,1933
1669280807.000643,1931
1669280807.0226905,1925
1669280807.023667,1925
1669280807.0496435,1925
1669280807.0506413,1921
1669280807.0526462,1914
1669280807.0726075,1902
1669280807.0736089,1890
1669280807.0976427,1874
1669280807.09861,1859
1669280807.0996113,1847
1669280807.1226077,1843
1669280807.1236622,1845
1669280807.1476452,1852
1669280807.1486092,1860
1669280807.1496441,1868
1669280807.1726463,1873
1669280807.1736097,1878
1669280807.1976404,1878
1669280807.1986413,1874
1669280807.2006114,1868
1669280807.228608,1876
1669280807.2476318,1887
1669280807.248613,1898
1669280807.2726142,1910
1669280807.2736168,1926
1669280807.2976418,1949
1669280807.2986412,1976
1669280807.2996094,1999
1669280807.3226085,2021
1669280807.3236065,2042
1669280807.3476458,2057
1669280807.3486454,2068
1669280807.3496454,2075
1669280807.397642,2076
1669280807.3986123,2074
1669280807.3996131,2065
1669280807.400643,2055
1669280807.4226751,2045
1669280807.4236803,2034
1669280807.4246802,2017
1669280807.4476337,2002
1669280807.4976122,1958
1669280807.4986274,1956
1669280807.5006077,1953
1669280807.522613,1953
1669280807.524609,1954
1669280807.5476081,1962
1669280807.5486093,1969
1669280807.5506089,1978
1669280807.5726123,1992
1669280807.5736074,2003
1669280807.599609,2025
1669280807.622608,2025
1669280807.6486096,1991
1669280807.6496074,1980
1669280807.6896436,1972
1669280807.6936154,1963
1669280807.7226079,1970
1669280807.7236228,1975
1669280807.724619,1978
1669280807.7496097,1975
1669280807.7506073,1962
1669280807.7526076,1953
1669280807.7726092,1944
1669280807.7976089,1935
1669280807.7996182,1930
1669280807.8226442,1927
1669280807.8236754,1930
1669280807.8246753,1936
1669280807.8256752,1948
1669280807.8476393,1966
1669280807.8486109,1979
1669280807.8736167,2039
1669280807.8976262,2063
1669280807.898609,2079
1669280807.9236255,2088
1669280807.9476442,2083
1669280807.9726129,2027
1669280807.9736092,2010
1669280807.9976413,1997
1669280808.0236132,1952
1669280808.047611,1947
1669280808.048608,1939
1669280808.0496078,1936
1669280808.0726092,1934
1669280808.0736108,1929
1669280808.1226077,1920
1669280808.1236086,1916
1669280808.1246107,1916
1669280808.147615,1921
1669280808.148618,1923
1669280808.172613,1923
1669280808.1736107,1925
1669280808.1746078,1924
1669280808.1976075,1923
1669280808.1986156,1919
1669280808.2226083,1913
1669280808.2236118,1907
1669280808.2246113,1904
1669280808.2476106,1902
1669280808.272608,1900
1669280808.2736154,1896
1669280808.2746122,1894
1669280808.2776089,1898
1669280808.29761,1904
1669280808.2986107,1912
1669280808.329611,1918
1669280808.3306105,1922
1669280808.3326085,1924
1669280808.3336048,1918
1669280808.3476095,1904
1669280808.3486109,1895
1669280808.37461,1892
1669280808.3756092,1897
1669280808.3976364,1910
1669280808.3986084,1925
1669280808.399607,1940
1669280808.4226067,1952
1669280808.42366,1962
1669280808.447636,1970
1669280808.4486372,1975
1669280808.4496427,1985
1669280808.472608,1998
1669280808.4736083,2012
1669280808.4976382,2022
1669280808.5226219,2011
1669280808.5236876,2002
1669280808.5476103,1995
1669280808.5486102,1987
1669280808.549609,1983
1669280808.57267,1975
1669280808.5736122,1965
1669280808.5996132,1933
1669280808.622617,1925
1669280808.6236086,1917
1669280808.649641,1916
1669280808.6726496,1918
1669280808.6736112,1922
1669280808.6976376,1928
1669280808.7226698,1935
1669280808.7236817,1937
1669280808.747639,1932
1669280808.7486107,1929
1669280808.7496138,1927
1669280808.750644,1924
1669280808.7526455,1923
1669280808.7726412,1921
1669280808.7736092,1925
1669280808.7976456,1930
1669280808.7986083,1927
1669280808.8226266,1919
1669280808.847611,1875
1669280808.848609,1860
1669280808.8726072,1852
1669280808.8976102,1857
1669280808.8986094,1856
1669280808.9236438,1846
1669280808.9696121,1847
1669280808.9706137,1848
1669280808.9746065,1880
1669280808.9976082,1898
1669280808.9986093,1919
1669280808.9996102,1948
1669280809.0226083,1982
1669280809.0236137,2014
1669280809.0476332,2041
1669280809.072614,2054
1669280809.0736117,2049
1669280809.0976076,2041
1669280809.0986092,2026
1669280809.1226127,2012
1669280809.1236184,1999
1669280809.1246161,1987
1669280809.1476414,1976
1669280809.1486106,1962
1669280809.1726098,1955
1669280809.1736069,1953
1669280809.1746092,1948
1669280809.1976132,1946
1669280809.1986144,1942
1669280809.2226377,1933
1669280809.2236376,1923
1669280809.2486181,1894
1669280809.2726123,1888
1669280809.2736058,1887
1669280809.2986073,1887
1669280809.324608,1892
1669280809.3256435,1897
1669280809.3276746,1900
1669280809.3476152,1903
1669280809.3486142,1905
1669280809.3726435,1905
1669280809.3976092,1871
1669280809.398608,1856
1669280809.4226675,1843
1669280809.423681,1833
1669280809.4246836,1829
1669280809.433644,1834
1669280809.4476373,1839
1669280809.4726424,1847
1669280809.474609,1855
1669280809.474609,1867
1669280809.4976435,1884
1669280809.5226727,1900
1669280809.5236688,1907
1669280809.5246077,1903
1669280809.547637,1892
1669280809.5486097,1883
1669280809.5496442,1876
1669280809.5546403,1874
1669280809.572608,1877
1669280809.5736086,1883
1669280809.6096082,1886
1669280809.6106093,1893
1669280809.612608,1903
1669280809.613629,1919
1669280809.6476405,1935
1669280809.6486382,1951
1669280809.649612,1964
1669280809.6726081,1978
1669280809.673607,1983
1669280809.6746094,1985
1669280809.6976326,1984
1669280809.6986272,1975
1669280809.7226956,1963
1669280809.7476346,1930
1669280809.74861,1923
1669280809.772654,1922
1669280809.773642,1921
1669280809.7746081,1912
1669280809.7976434,1898
1669280809.7986088,1884
1669280809.822792,1869
1669280809.8236156,1861
1669280809.8246136,1858
1669280809.8496463,1857
1669280809.8506396,1857
1669280809.8526423,1862
1669280809.8976433,1881
1669280809.9226058,1888
1669280809.923606,1891
1669280809.9246135,1893
1669280809.926613,1897
1669280809.9476223,1903
1669280809.9486089,1908
1669280809.953643,1910
1669280809.9726102,1909
1669280809.9736395,1902
1669280809.9976387,1893
1669280809.998629,1883
1669280810.022697,1873
1669280810.023698,1865
1669280810.0247104,1859
1669280810.047615,1859
1669280810.0486305,1861
1669280810.072642,1861
1669280810.0736392,1857
1669280810.074607,1855
1669280810.0976424,1854
1669280810.12361,1850
1669280810.124608,1846
1669280810.147624,1848
1669280810.1976094,1862
1669280810.1986265,1880
1669280810.2226136,1904
1669280810.249612,1930
1669280810.2506087,1955
1669280810.252612,1978
1669280810.2536087,1997
1669280810.2546093,2002
1669280810.2726054,1994
1669280810.2736046,1981
1669280810.2976055,1967
1669280810.2986085,1951
1669280810.322609,1937
1669280810.3486104,1895
1669280810.3726373,1885
1669280810.3736079,1874
1669280810.3746076,1870
1669280810.3976445,1868
1669280810.3986137,1866
1669280810.4226809,1866
1669280810.4476097,1875
1669280810.4486115,1883
1669280810.472638,1891
1669280810.4986134,1910
1669280810.5246377,1883
1669280810.547608,1876
1669280810.548608,1871
1669280810.5986092,1886
1669280810.6226718,1892
1669280810.647609,1901
1669280810.6486099,1910
1669280810.6496134,1915
1669280810.6746082,1874
1669280810.6976545,1864
1669280810.6986074,1856
1669280810.7226157,1852
1669280810.7236102,1854
1669280810.7246091,1865
1669280810.747609,1884
1669280810.74861,1906
1669280810.7726061,1928
1669280810.7736063,1948
1669280810.7746067,1962
1669280810.800609,1975
1669280810.802609,1984
1669280810.8036087,1988
1669280810.8226135,1984
1669280810.8236053,1971
1669280810.8476372,1954
1669280810.8486133,1936
1669280810.8896816,1920
1669280810.8906448,1909
1669280810.8926735,1902
1669280810.8936808,1895
1669280810.8946078,1885
1669280810.922682,1882
1669280810.9236803,1884
1669280810.9246807,1889
1669280810.947638,1896
1669280810.948611,1897
1669280810.9726057,1894
1669280810.9976408,1891
1669280810.9986157,1888
1669280811.0076394,1884
1669280811.0226057,1880
1669280811.0237966,1879
1669280811.0246103,1885
1669280811.0267937,1887
1669280811.0476327,1886
1669280811.048624,1876
1669280811.0726395,1867
1669280811.0736077,1862
1669280811.0746076,1858
1669280811.0976322,1860
1669280811.098626,1863
1669280811.1226978,1869
1669280811.1237018,1875
1669280811.1246996,1878
1669280811.1476398,1876
1669280811.1486409,1875
1669280811.172611,1881
1669280811.1736128,1889
1669280811.1746085,1890
1669280811.1976328,1888
1669280811.1986089,1884
1669280811.2226987,1878
1669280811.2236981,1871
1669280811.2246945,1860
1669280811.24764,1851
1669280811.2486086,1846
1669280811.2726085,1854
1669280811.2736075,1865
1669280811.2746067,1881
1669280811.3226147,1933
1669280811.3276238,1948
1669280811.328612,1957
1669280811.3476107,1961
1669280811.3726077,1962
1669280811.3736398,1960
1669280811.3756092,1955
1669280811.3756092,1951
1669280811.3976398,1948
1669280811.3986123,1945
1669280811.4226751,1936
1669280811.423661,1925
1669280811.4486094,1906
1669280811.4726398,1900
1669280811.497614,1903
1669280811.502643,1896
1669280811.5296447,1887
1669280811.5336199,1853
1669280811.5476084,1842
1669280811.572605,1835
1669280811.5806088,1827
1669280811.5976377,1823
1669280811.5986452,1824
1669280811.5996377,1832
1669280811.6226346,1846
1669280811.6236358,1856
1669280811.6246367,1862
1669280811.6476388,1865
1669280811.6486104,1862
1669280811.6726098,1857
1669280811.6736064,1846
1669280811.6746056,1837
1669280811.6976402,1830
1669280811.723609,1832
1669280811.724626,1836
1669280811.7496188,1845
1669280811.772609,1875
1669280811.7976086,1880
1669280811.822607,1870
1669280811.8236082,1863
1669280811.8476105,1860
1669280811.8486133,1861
1669280811.853613,1864
1669280811.8546095,1868
1669280811.872608,1871
1669280811.8736064,1878
1669280811.8976064,1881
1669280811.8986092,1882
1669280811.922606,1886
1669280811.9236155,1887
1669280811.948611,1905
1669280811.9576192,1908
1669280811.9726083,1908
1669280811.997614,1912
1669280811.9986117,1912
1669280812.0226204,1906
1669280812.0236206,1896
1669280812.0476112,1868
1669280812.0486085,1871
1669280812.0726104,1876
1669280812.0986116,1864
1669280812.122608,1860
1669280812.1236744,1857
1669280812.124675,1858
1669280812.1736069,1862
1669280812.1746073,1862
1669280812.1756082,1862
1669280812.1776123,1864
1669280812.1786127,1862
1669280812.1976323,1862
1669280812.2066422,1863
1669280812.2226057,1864
1669280812.2236876,1864
1669280812.2476385,1861
1669280812.2486186,1857
1669280812.2496433,1850
1669280812.2756095,1841
1669280812.2776403,1834
1669280812.278608,1829
1669280812.297636,1823
1669280812.3226695,1816
1669280812.3236625,1813
1669280812.3476393,1817
1669280812.3486166,1823
1669280812.3496432,1830
1669280812.3506498,1840
1669280812.3726099,1846
1669280812.377605,1850
1669280812.3786068,1851
1669280812.397635,1853
1669280812.3986104,1855
1669280812.4226606,1858
1669280812.4236567,1865
1669280812.424667,1878
1669280812.4476347,1899
1669280812.4486244,1919
1669280812.4726074,1939
1669280812.4736063,1954
1669280812.4746058,1967
1669280812.4976404,1972
1669280812.498642,1970
1669280812.5226984,1966
1669280812.5236232,1958
1669280812.5246217,1949
1669280812.5476322,1939
1669280812.548612,1927
1669280812.5726051,1919
1669280812.5736089,1916
1669280812.5746067,1917
1669280812.5976403,1910
1669280812.598642,1900
1669280812.6226974,1890
1669280812.6476333,1875
1669280812.6486206,1857
1669280812.6496353,1844
1669280812.6516137,1838
1669280812.674611,1844
1669280812.6996474,1847
1669280812.7016137,1852
1669280812.722667,1852
1669280812.7476137,1856
1669280812.773675,1841
1669280812.7746093,1841
1669280812.8136086,1843
1669280812.817628,1848
1669280812.8476098,1847
1669280812.8486097,1849
1669280812.8496125,1851
1669280812.8726065,1852
1669280812.8736084,1857
1669280812.874608,1866
1669280812.8976474,1874
1669280812.8986084,1882
1669280812.922612,1888
1669280812.9236155,1888
1669280812.9246073,1885
1669280812.9476042,1877
1669280812.9726086,1861
1669280812.9736066,1846
1669280812.9976137,1837
1669280813.0016067,1848
1669280813.0226834,1859
1669280813.0236812,1866
1669280813.0486104,1891
1669280813.0726104,1905
1669280813.0736089,1919
1669280813.0746117,1931
1669280813.097611,1943
1669280813.0986123,1947
1669280813.1226633,1950
1669280813.1486104,1886
1669280813.1726403,1866
1669280813.1736052,1853
1669280813.1756072,1844
1669280813.1976397,1842
1669280813.1986108,1842
1669280813.2226615,1848
1669280813.223663,1849
1669280813.2246635,1851
1669280813.2476416,1856
1669280813.2486095,1862
1669280813.2726076,1875
1669280813.2736075,1883
1669280813.2976425,1889
1669280813.2986429,1892
1669280813.3236134,1903
1669280813.3476083,1905
1669280813.3486075,1903
1669280813.397608,1888
1669280813.398609,1884
1669280813.4226105,1868
1669280813.4236128,1862
1669280813.4536073,1855
1669280813.4976068,1851
1669280813.4986086,1860
1669280813.522618,1868
1669280813.5236075,1878
1669280813.5246108,1884
1669280813.550608,1885
1669280813.5526075,1884
1669280813.5726075,1880
1669280813.5736072,1875
1669280813.574608,1868
1669280813.5976121,1859
1669280813.5986123,1851
1669280813.6226203,1847
1669280813.6236205,1851
1669280813.6246228,1861
1669280813.6516113,1878
1669280813.6526377,1890
1669280813.672606,1902
1669280813.6736073,1918
1669280813.6746066,1938
1669280813.6976125,1955
1669280813.6986125,1964
1669280813.7226806,1967
1669280813.7236812,1970
1669280813.747611,1970
1669280813.7726066,1967
1669280813.7736075,1952
1669280813.7746105,1932
1669280813.775609,1907
1669280813.777611,1892
1669280813.7976148,1885
1669280813.7986116,1886
1669280813.8226821,1885
1669280813.8236816,1876
1669280813.8476584,1867
1669280813.848616,1859
1669280813.84966,1850
1669280813.8726068,1841
1669280813.8736076,1831
1669280813.897624,1830
1669280813.8986096,1837
1669280813.899645,1845
1669280813.9226744,1854
1669280813.923681,1859
1669280813.9476438,1859
1669280813.9486413,1861
1669280813.9496446,1865
1669280813.9726057,1868
1669280813.9736085,1870
1669280813.9976387,1870
1669280813.9986088,1864
1669280813.9996395,1859
1669280814.022699,1855
1669280814.0237,1852
1669280814.0256083,1848
1669280814.0476396,1847
1669280814.04861,1844
1669280814.0896096,1843
1669280814.0916104,1845
1669280814.1227024,1870
1669280814.1236956,1882
1669280814.1246111,1889
1669280814.1266088,1896
1669280814.147641,1900
1669280814.148612,1899
1669280814.173606,1894
1669280814.197645,1865
1669280814.1986234,1854
1669280814.2226667,1848
1669280814.2236617,1845
1669280814.2476153,1850
1669280814.2486122,1861
1669280814.249611,1871
1669280814.272607,1882
1669280814.2736056,1897
1669280814.2826395,1914
1669280814.2976115,1933
1669280814.2986112,1951
1669280814.3226748,1964
1669280814.3236759,1965
1669280814.347612,1969
1669280814.3486223,1966
1669280814.373651,1945
1669280814.3976061,1941
1669280814.3986096,1935
1669280814.4236422,1916
1669280814.4476252,1910
1669280814.4486074,1903
1669280814.4496198,1899
1669280814.4726114,1897
1669280814.4736097,1897
1669280814.497616,1901
1669280814.5246372,1925
1669280814.5476065,1933
1669280814.5486512,1940
1669280814.549611,1941
1669280814.5516436,1940
1669280814.57264,1935
1669280814.5736067,1924
1669280814.5986128,1875
1669280814.6366098,1869
1669280814.648608,1873
1669280814.6726158,1873
1669280814.698608,1867
1669280814.6996105,1867
1669280814.7296088,1870
1669280814.7476075,1874
1669280814.748609,1875
1669280814.7726057,1874
1669280814.7736049,1869
1669280814.7976046,1872
1669280814.79861,1879
1669280814.803609,1887
1669280814.804607,1903
1669280814.8226614,1919
1669280814.8476374,1932
1669280814.8486466,1940
1669280814.8496122,1946
1669280814.8726065,1945
1669280814.8976388,1939
1669280814.898642,1933
1669280814.8996358,1926
1669280814.901633,1919
1669280814.922609,1909
1669280814.9236739,1903
1669280814.9476147,1894
1669280814.9486134,1888
1669280814.9496498,1887
1669280814.972606,1889
1669280814.973606,1892
1669280814.9976425,1895
1669280814.9986165,1898
1669280814.9996521,1894
1669280815.0226104,1893
1669280815.0236752,1888
1669280815.0476422,1885
1669280815.0486112,1887
1669280815.0496407,1894
1669280815.0726078,1901
1669280815.0736072,1907
1669280815.07861,1907
1669280815.0976424,1908
1669280815.098614,1908
1669280815.1246796,1909
1669280815.1266375,1906
1669280815.1476336,1904
1669280815.172607,1901
1669280815.197613,1894
1669280815.1986125,1894
1669280815.1996176,1892
1669280815.222687,1890
1669280815.2236714,1890
1669280815.2476444,1888
1669280815.2486162,1887
1669280815.2496586,1887
1669280815.272607,1886
1669280815.2736063,1882
1669280815.2976263,1876
1669280815.298611,1866
1669280815.2996497,1851
1669280815.3696067,1810
1669280815.3716118,1808
1669280815.3726096,1808
1669280815.3736095,1810
1669280815.3746073,1816
1669280815.3976138,1829
1669280815.3986125,1845
1669280815.3996446,1864
1669280815.4226975,1884
1669280815.4236326,1901
1669280815.4476151,1916
1669280815.4486127,1924
1669280815.4746065,1949
1669280815.4976401,1955
1669280815.5226803,1957
1669280815.5236816,1955
1669280815.547634,1950
1669280815.5486124,1935
1669280815.549611,1923
1669280815.572609,1894
1669280815.573607,1884
1669280815.5976653,1883
1669280815.622609,1901
1669280815.6236098,1903
1669280815.6506135,1904
1669280815.6726441,1901
1669280815.6736434,1901
1669280815.698608,1907
1669280815.7226067,1903
1669280815.7236052,1896
1669280815.7476077,1895
1669280815.7486086,1901
1669280815.772607,1910
1669280815.7976089,1919
1669280815.7986166,1925
1669280815.7996109,1931
1669280815.80161,1931
1669280815.8116083,1926
1669280815.8226085,1924
1669280815.8236206,1920
1669280815.8476076,1913
1669280815.8486068,1906
1669280815.872607,1900
1669280815.8736076,1895
1669280815.8746097,1887
1669280815.8976405,1880
1669280815.8986106,1875
1669280815.899613,1867
1669280815.9226987,1856
1669280815.9236991,1843
1669280815.9476511,1831
1669280815.9486344,1823
1669280815.9746091,1832
1669280816.0096085,1838
1669280816.0116105,1840
1669280816.048609,1885
1669280816.0496168,1904
1669280816.0516422,1923
1669280816.0766077,1939
1669280816.0776076,1955
1669280816.0786078,1968
1669280816.097638,1977
1669280816.098617,1979
1669280816.1226676,1981
1669280816.123661,1979
1669280816.1476436,1973
1669280816.1486115,1964
1669280816.1496518,1956
1669280816.1726065,1948
1669280816.1976118,1940
1669280816.1986122,1929
1669280816.1996439,1924
1669280816.2016428,1919
1669280816.222694,1918
1669280816.2236996,1919
1669280816.2496119,1911
1669280816.2726212,1904
1669280816.273606,1899
1669280816.2976105,1899
1669280816.298614,1906
1669280816.299612,1910
1669280816.3226066,1913
1669280816.323663,1917
1669280816.3476326,1915
1669280816.3486094,1913
1669280816.3496096,1916
1669280816.3726065,1925
1669280816.3846118,1937
1669280816.3976414,1945
1669280816.3986187,1947
1669280816.399641,1941
1669280816.422701,1932
1669280816.423704,1920
1669280816.447634,1910
1669280816.4486125,1897
1669280816.4496448,1882
1669280816.4726074,1869
1669280816.4736068,1859
1669280816.4976459,1860
1669280816.4986115,1865
1669280816.4996467,1871
1669280816.522788,1876
1669280816.5238085,1877
1669280816.5476398,1881
1669280816.5486114,1884
1669280816.5496168,1891
1669280816.5726056,1892
1669280816.5736077,1885
1669280816.5976527,1874
1669280816.5986116,1869
1669280816.5996203,1872
1669280816.6226058,1880
1669280816.6236398,1891
1669280816.6496413,1899
1669280816.6516151,1907
1669280816.6526434,1919
1669280816.672607,1930
1669280816.6736064,1938
1669280816.6976385,1943
1669280816.7226949,1948
1669280816.723695,1947
1669280816.747647,1944
1669280816.7486486,1941
1669280816.7526493,1933
1669280816.7726233,1924
1669280816.7736075,1913
1669280816.7976413,1901
1669280816.7986217,1892
1669280816.7996414,1885
1669280816.822623,1880
1669280816.8726103,1872
1669280816.873611,1870
1669280816.899615,1899
1669280816.9226322,1911
1669280816.923606,1918
1669280816.947608,1925
1669280816.9486132,1928
1669280816.9616067,1931
1669280816.972607,1932
1669280816.973619,1930
1669280816.9976044,1926
1669280816.9986134,1915
1669280816.9996066,1903
1669280817.0226812,1896
1669280817.0236378,1887
1669280817.0476434,1882
1669280817.0726075,1874
1669280817.0736082,1871
1669280817.074609,1875
1669280817.076614,1883
1669280817.0976112,1891
1669280817.0986087,1890
1669280817.0996144,1889
1669280817.1226845,1891
1669280817.1236608,1894
1669280817.1476426,1901
1669280817.172606,1895
1669280817.17361,1892
1669280817.19764,1892
1669280817.2236102,1907
1669280817.2486076,1917
1669280817.2496436,1921
1669280817.251608,1929
1669280817.2896705,1942
1669280817.2916718,1959
1669280817.3476083,2010
1669280817.352608,2011
1669280817.3536394,2008
1669280817.3546095,1998
1669280817.356669,1985
1669280817.372606,1972
1669280817.3986228,1929
1669280817.3996189,1918
1669280817.4226816,1907
1669280817.4236717,1894
1669280817.4476125,1884
1669280817.4486144,1874
1669280817.4536421,1867
1669280817.49761,1871
1669280817.4986427,1882
1669280817.4996426,1892
1669280817.522607,1907
1669280817.5236075,1924
1669280817.5476093,1939
1669280817.5486102,1947
1669280817.549608,1949
1669280817.5726554,1951
1669280817.589607,1953
1669280817.597642,1949
1669280817.5986168,1940
1669280817.599607,1924
1669280817.6226082,1909
1669280817.6236093,1901
1669280817.6476316,1902
1669280817.648614,1906
1669280817.6496112,1911
1669280817.6726205,1914
1669280817.673607,1911
1669280817.6976085,1904
1669280817.6986084,1898
1669280817.6996078,1893
1669280817.7226806,1893
1669280817.7236745,1891
1669280817.7476373,1890
1669280817.772607,1889
1669280817.7736087,1894
1669280817.7766085,1906
1669280817.7976418,1919
1669280817.798617,1932
1669280817.7996397,1945
1669280817.8016093,1956
1669280817.8227022,1968
1669280817.8237052,1978
1669280817.8476093,1990
1669280817.8486156,2004
1669280817.8496244,2015
1669280817.8726068,2024
1669280817.8736074,2032
1669280817.8976455,2041
1669280817.8986163,2044
1669280817.9296374,2040
1669280817.9316423,2032
1669280817.9326086,2020
1669280817.9336424,2005
1669280817.9476426,1992
1669280817.9726064,1974
1669280817.9736056,1952
1669280817.9746084,1936
1669280817.997642,1922
1669280817.998646,1918
1669280818.0016406,1916
1669280818.047615,1917
1669280818.0486274,1919
1669280818.049611,1918
1669280818.0746365,1914
1669280818.0766098,1907
1669280818.097642,1898
1669280818.1236298,1896
1669280818.1476073,1893
1669280818.149615,1884
1669280818.17261,1875
1669280818.177612,1866
1669280818.1796088,1860
1669280818.1976058,1855
1669280818.198611,1856
1669280818.2016084,1856
1669280818.222607,1859
1669280818.2236352,1862
1669280818.2476406,1870
1669280818.272608,1905
1669280818.273606,1906
1669280818.2976413,1909
1669280818.2986157,1905
1669280818.3226953,1898
1669280818.3236957,1894
1669280818.32461,1890
1669280818.3476336,1893
1669280818.3486147,1903
1669280818.3516586,1924
1669280818.3726058,1948
1669280818.373607,1973
1669280818.3976545,1999
1669280818.3986259,2020
1669280818.403609,2038
1669280818.4227018,2055
1669280818.448613,2058
1669280818.4516106,2045
1669280818.472609,2032
1669280818.4986126,2007
1669280818.5226095,1997
1669280818.5696216,1971
1669280818.571608,1964
1669280818.572616,1964
1669280818.622612,1962
1669280818.6236107,1963
1669280818.6246114,1956
1669280818.626613,1941
1669280818.6476076,1929
1669280818.6486068,1922
1669280818.6736119,1921
1669280818.6976142,1924
1669280818.7026093,1925
1669280818.7036088,1924
1669280818.7226095,1924
1669280818.7236102,1923
1669280818.7476168,1922
1669280818.7486124,1919
1669280818.7636166,1919
1669280818.7726076,1920
1669280818.7736084,1922
1669280818.7976067,1924
1669280818.8226092,1928
1669280818.823613,1925
1669280818.8476117,1925
1669280818.848608,1925
1669280818.8516078,1923
1669280818.8726099,1923
1669280818.873608,1924
1669280818.8976064,1925
1669280818.8986092,1933
1669280818.9016063,1942
1669280818.9226108,1958
1669280818.9236107,1976
1669280818.9476092,1999
1669280818.9486089,2018
1669280818.972606,2034
1669280818.973611,2050
1669280818.9746075,2064
1669280818.9976087,2075
1669280818.9986107,2082
1669280819.0226202,2084
1669280819.0236201,2079
1669280819.0246074,2066
1669280819.0476112,2047
1669280819.0486128,2022
1669280819.0726142,2004
1669280819.0736086,1993
1669280819.0746074,1983
1669280819.0976489,1974
1669280819.098611,1965
1669280819.1226935,1961
1669280819.1236951,1959
1669280819.1246114,1951
1669280819.14761,1945
1669280819.1486104,1938
1669280819.1726437,1932
1669280819.173607,1927
1669280819.174607,1923
1669280819.2106094,1919
1669280819.2116072,1914
1669280819.2126074,1907
1669280819.2136078,1901
1669280819.226609,1893
1669280819.247612,1891
1669280819.2486196,1893
1669280819.249612,1893
1669280819.2726085,1896
1669280819.2826066,1899
1669280819.297642,1896
1669280819.2986271,1891
1669280819.299643,1887
1669280819.3227983,1884
1669280819.327636,1880
1669280819.3286364,1880
1669280819.3476458,1884
1669280819.3726072,1891
1669280819.3736076,1893
1669280819.374608,1891
1669280819.4036353,1893
1669280819.4227993,1895
1669280819.4236104,1897
1669280819.4726675,1920
1669280819.4736097,1939
1669280819.4986105,2031
1669280819.5227983,2055
1669280819.523623,2073
1669280819.5496082,2081
1669280819.572625,2068
1669280819.5736403,2052
1669280819.5976086,2036
1669280819.5986116,2023
1669280819.6226075,2008
1669280819.6476247,1975
1669280819.6486096,1965
1669280819.64961,1958
1669280819.6726062,1951
1669280819.6736128,1945
1669280819.6976085,1935
1669280819.6986074,1927
1669280819.723606,1912
1669280819.747608,1911
1669280819.7486076,1909
1669280819.773607,1911
1669280819.797611,1912
1669280819.8226075,1910
1669280819.823606,1904
1669280819.853607,1897
1669280819.8746066,1884
1669280819.8976064,1882
1669280819.8986065,1882
1669280819.9227016,1885
1669280819.923612,1888
1669280819.9506056,1892
1669280819.9516234,1891
1669280819.9726062,1881
1669280819.9736087,1870
1669280819.9746094,1862
1669280819.9856076,1854
1669280819.9976926,1855
1669280819.9986122,1863
1669280820.0226104,1877
1669280820.0236382,1893
1669280820.052615,1961
1669280820.0536156,1989
1669280820.072667,2006
1669280820.122607,2045
1669280820.1236086,2040
1669280820.1256082,2026
1669280820.147609,2010
1669280820.1486142,1988
1669280820.1726058,1973
1669280820.1736073,1957
1669280820.1746068,1946
1669280820.1976094,1940
1669280820.1986086,1937
1669280820.2036145,1938
1669280820.2226133,1942
1669280820.2236114,1943
1669280820.247609,1946
1669280820.2486117,1949
1669280820.272607,1948
1669280820.2736077,1946
1669280820.2746084,1949
1669280820.2976074,1957
1669280820.2986135,1960
1669280820.322808,1958
1669280820.324613,1955
1669280820.325614,1950
1669280820.347637,1948
1669280820.3486173,1946
1669280820.3726134,1946
1669280820.373643,1945
1669280820.3976402,1943
1669280820.3986156,1939
1669280820.4228022,1931
1669280820.4246314,1921
1669280820.4246314,1911
1669280820.4266098,1900
1669280820.447647,1890
1669280820.4486127,1875
1669280820.4936454,1854
1669280820.4946084,1829
1669280820.4966438,1801
1669280820.497662,1778
1669280820.4986117,1759
1669280820.5228198,1743
1669280820.524612,1737
1669280820.5346086,1745
1669280820.547639,1770
1669280820.5486124,1808
1669280820.5736063,1860
1669280820.574609,1920
1669280820.5766068,1985
1669280820.5976121,2040
1669280820.5986423,2089
1669280820.6228173,2136
1669280820.6246123,2179
1669280820.6256099,2217
1669280820.647626,2243
1669280820.6526728,2266
1669280820.672607,2284
1669280820.7006161,2268
1669280820.7016332,2228
1669280820.723627,2064
1669280820.7476084,2010
1669280820.7486143,1958
1669280820.7726073,1913
1669280820.773607,1874
1669280820.7746062,1840
1669280820.7976453,1820
1669280820.7986102,1806
1669280820.8246186,1790
1669280820.8476071,1786
1669280820.848609,1773
1669280820.8726413,1767
1669280820.8746197,1769
1669280820.875608,1779
1669280820.8976066,1797
1669280820.9236114,1847
1669280820.9246194,1857
1669280820.9476154,1871
1669280820.9486089,1883
1669280820.9726079,1897
1669280820.9746077,1906
1669280820.9786077,1910
1669280820.9976227,1914
1669280820.9986253,1921
1669280821.0226102,1942
1669280821.0236797,1970
1669280821.0476098,2001
1669280821.0726068,2038
1669280821.0736086,2074
1669280821.07461,2111
1669280821.0766077,2144
1669280821.0776055,2169
1669280821.0976393,2188
1669280821.0986123,2190
1669280821.1306064,2183
1669280821.1316104,2165
1669280821.1726058,2023
1669280821.1736069,1988
1669280821.175612,1962
1669280821.1976137,1947
1669280821.1986134,1939
1669280821.222777,1935
1669280821.2486086,1952
1669280821.2726076,1967
1669280821.273611,1988
1669280821.2746124,2006
1669280821.2976072,2020
1669280821.298612,2019
1669280821.347611,1996
1669280821.3486164,1991
1669280821.3986132,1933
1669280821.4266074,1931
1669280821.4276083,1927
1669280821.4286077,1925
1669280821.447615,1927
1669280821.475611,1911
1669280821.4976153,1889
1669280821.4986227,1868
1669280821.5226083,1854
1669280821.5236812,1847
1669280821.5246127,1835
1669280821.5336437,1823
1669280821.5476062,1816
1669280821.5726063,1811
1669280821.5736072,1808
1669280821.5756137,1811
1669280821.5976448,1814
1669280821.5986135,1816
1669280821.6226873,1816
1669280821.6236236,1815
1669280821.6256166,1817
1669280821.6476083,1818
1669280821.6486084,1822
1669280821.6728036,1835
1669280821.6736176,1852
1669280821.6756144,1877
1669280821.6976485,1908
1669280821.6986175,1947
1669280821.7228255,1993
1669280821.72361,2040
1669280821.7256167,2073
1669280821.771607,2100
1669280821.772605,2116
1669280821.7736099,2120
1669280821.7976458,2057
1669280821.798635,2025
1669280821.8227048,1999
1669280821.8236227,1979
1669280821.825615,1969
1669280821.847611,1966
1669280821.848612,1969
1669280821.873607,1979
1669280821.8976405,1973
1669280821.922641,1962
1669280821.92364,1944
1669280821.9476101,1925
1669280821.948611,1909
1669280821.9506269,1894
1669280821.9516108,1881
1669280821.9726055,1875
1669280821.973608,1872
1669280821.9756074,1876
1669280821.9976108,1887
1669280821.9986103,1901
1669280822.0226948,1918
1669280822.0237,1938
1669280822.024619,1957
1669280822.0726078,1978
1669280822.0736065,1981
1669280822.0756097,1975
1669280822.1226058,1947
1669280822.123638,1941
1669280822.1246076,1934
1669280822.1476088,1927
1669280822.148608,1919
1669280822.1726193,1910
1669280822.1736085,1900
1669280822.1986148,1870
1669280822.2226112,1870
1669280822.2236123,1872
1669280822.2246072,1879
1669280822.2476141,1896
1669280822.2486072,1917
1669280822.272608,1941
1669280822.2976112,2009
1669280822.298612,2020
1669280822.3226166,2023
1669280822.3476079,1986
1669280822.3736057,1968
1669280822.3756106,1949
1669280822.376611,1931
1669280822.4106095,1918
1669280822.4116135,1910
1669280822.4126122,1903
1669280822.4476426,1892
1669280822.4486115,1881
1669280822.450607,1874
1669280822.476641,1876
1669280822.4776459,1874
1669280822.4786096,1867
1669280822.4976082,1862
1669280822.5236459,1866
1669280822.5256145,1870
1669280822.547626,1874
1669280822.5486155,1876
1669280822.5726433,1879
1669280822.5736294,1874
1669280822.5806062,1872
1669280822.6236084,1881
1669280822.6256075,1881
1669280822.6476116,1882
1669280822.648616,1877
1669280822.6726434,1871
1669280822.6736066,1868
1669280822.6986077,1855
1669280822.7226057,1858
1669280822.7236173,1863
1669280822.772606,1886
1669280822.7736087,1888
1669280822.775608,1887
1669280822.7976077,1886
1669280822.7986112,1883
1669280822.8006184,1882
1669280822.8226542,1880
1669280822.8236082,1880
1669280822.82564,1885
1669280822.8476076,1893
1669280822.8486087,1905
1669280822.872642,1923
1669280822.8736086,1946
1669280822.875623,1969
1669280822.8976357,1988
1669280822.9026957,2011
1669280822.9036503,2035
1669280822.9226935,2052
1669280822.9236095,2063
1669280822.9476092,2070
1669280822.9486117,2072
1669280822.9726083,2072
1669280822.9736063,2064
1669280822.975643,2049
1669280822.9976075,2031
1669280822.9986215,2006
1669280823.02279,1983
1669280823.050607,1942
1669280823.0516129,1934
1669280823.0726435,1925
1669280823.07361,1922
1669280823.0756075,1920
1669280823.0976403,1920
1669280823.09861,1918
1669280823.122703,1915
1669280823.1236129,1912
1669280823.1256332,1905
1669280823.1726093,1847
1669280823.173607,1812
1669280823.175608,1774
1669280823.197646,1734
1669280823.19861,1701
1669280823.2226233,1676
1669280823.2476056,1664
1669280823.2486067,1666
1669280823.2506106,1687
1669280823.2516997,1722
1669280823.2726066,1764
1669280823.2736096,1813
1669280823.2756104,1867
1669280823.2976415,1917
1669280823.2986186,1955
1669280823.3227212,1976
1669280823.3236313,1983
1669280823.3256118,1980
1669280823.347645,1966
1669280823.3486235,1937
1669280823.3726063,1896
1669280823.373608,1843
1669280823.3756075,1788
1669280823.3976405,1734
1669280823.398619,1691
1669280823.4231648,1663
1669280823.4239616,1646
1669280823.4249518,1637
1669280823.4479864,1637
1669280823.4489536,1644
1669280823.4979548,1705
1669280823.4989522,1743
1669280823.5239844,1787
1669280823.5249534,1837
1669280823.5260043,1890
1669280823.527952,1948
1669280823.5479524,2007
1669280823.5749521,2157
1669280823.5749521,2185
1669280823.597986,2198
1669280823.624952,2126
1669280823.6899483,2046
1669280823.6909506,2021
1669280823.6929507,1997
1669280823.7229486,1925
1669280823.7239654,1904
1669280823.7249544,1885
1669280823.747952,1871
1669280823.748956,1863
1669280823.7729628,1864
1669280823.7739534,1867
1669280823.7989607,1869
1669280823.8229635,1849
1669280823.823951,1812
1669280823.8249521,1775
1669280823.8479514,1733
1669280823.8730037,1692
1669280823.873955,1653
1669280823.899984,1596
1669280823.901948,1596
1669280823.9229834,1610
1669280823.9489496,1748
1669280823.9729927,1785
1669280823.9739487,1821
1669280823.9749522,1858
1669280823.9979923,1892
1669280823.9989517,1916
1669280824.0229685,1933
1669280824.023951,1940
1669280824.0249555,1943
1669280824.0489545,1945
1669280824.0499508,1947
1669280824.0730312,1950
1669280824.0740376,1954
1669280824.0980299,1965
1669280824.0990305,1975
1669280824.1240337,1982
1669280824.125033,1982
1669280824.1480358,1984
1669280824.1490366,1988
1669280824.1730437,1993
1669280824.1740372,1991
1669280824.1980705,1990
1669280824.199046,1987
1669280824.2001064,1985
1669280824.2233005,1975
1669280824.224138,1954
1669280824.248136,1921
1669280824.2491446,1881
1669280824.2501342,1840
1669280824.2731338,1796
1669280824.2741387,1759
1669280824.298138,1728
1669280824.2991378,1699
1669280824.3003206,1672
1669280824.3301373,1649
1669280824.3311703,1628
1669280824.3333123,1610
1669280824.3481355,1599
1669280824.3491395,1593
1669280824.3731375,1592
1669280824.3741345,1604
1669280824.3751347,1628
1669280824.3981385,1669
1669280824.3991356,1724
1669280824.4232364,1792
1669280824.4241898,1865
1669280824.4251695,1940
1669280824.4481368,2011
1669280824.4491735,2064
1669280824.4731326,2098
1669280824.474134,2112
1669280824.4761596,2104
1669280824.498136,2079
1669280824.4991364,2045
1669280824.5231977,2008
1669280824.5481358,1969
1669280824.5491393,1934
1669280824.5501711,1900
1669280824.5751455,1878
1669280824.576185,1864
1669280824.5781372,1861
1669280824.5791488,1868
1669280824.598136,1880
1669280824.599146,1891
1669280824.623167,1901
1669280824.624139,1899
1669280824.6481469,1892
1669280824.6491761,1884
1669280824.6501353,1879
1669280824.6761334,1880
1669280824.678151,1880
1669280824.679148,1887
1669280824.6981628,1893
1669280824.699137,1903
1669280824.7231379,1918
1669280824.7241383,1928
1669280824.7481334,1937
1669280824.7491405,1944
1669280824.750136,1945
1669280824.7721329,1942
1669280824.7781367,1936
1669280824.779136,1929
1669280824.798159,1921
1669280824.7991364,1910
1669280824.8231375,1896
1669280824.8241453,1877
1669280824.8491404,1852
1669280824.8731391,1852
1669280824.8741348,1849
1669280824.900137,1842
1669280824.9231334,1844
1669280824.97014,1847
1669280824.9711382,1851
1669280824.9731328,1858
1669280824.9741344,1863
1669280824.9751372,1869
1669280824.9981315,1879
1669280824.9991348,1879
1669280825.023132,1872
1669280825.0241413,1862
1669280825.0481384,1851
1669280825.0491354,1840
1669280825.0501366,1829
1669280825.073132,1820
1669280825.074134,1813
1669280825.0981317,1811
1669280825.0991333,1810
1669280825.1001387,1810
1669280825.123138,1811
1669280825.1241379,1801
1669280825.1481555,1787
1669280825.1491723,1779
1669280825.1741385,1782
1669280825.1981606,1781
1669280825.1991372,1777
1669280825.224138,1767
1669280825.2481349,1759
1669280825.2731419,1759
1669280825.2741375,1768
1669280825.2981603,1783
1669280825.3241332,1876
1669280825.3261335,1900
1669280825.3481557,1920
1669280825.3731341,1935
1669280825.3741343,1940
1669280825.398158,1938
1669280825.4081357,1923
1669280825.4231393,1915
1669280825.448138,1907
1669280825.4731338,1898
1669280825.4741364,1899
1669280825.4981353,1898
1669280825.4991329,1897
1669280825.5001347,1895
1669280825.5231338,1892
1669280825.5491378,1896
1669280825.550136,1898
1669280825.5731351,1897
1669280825.5741377,1895
1669280825.6141336,1891
1669280825.6151335,1888
1669280825.616135,1883
1669280825.6181326,1878
1669280825.6192079,1873
1669280825.6481333,1871
1669280825.6491342,1871
1669280825.650134,1870
1669280825.6731322,1865
1669280825.674135,1860
1669280825.6981366,1859
1669280825.6991377,1860
1669280825.7002013,1863
1669280825.723133,1868
1669280825.7241375,1868
1669280825.7481716,1865
1669280825.749142,1862
1669280825.7501652,1860
1669280825.7731335,1855
1669280825.7741401,1847
1669280825.798136,1839
1669280825.8261604,1835
1669280825.8281662,1834
1669280825.8291361,1833
1669280825.8301597,1832
1669280825.8311691,1836
1669280825.8481696,1843
1669280825.849138,1851
1669280825.873136,1862
1669280825.8741357,1871
1669280825.8981345,1882
1669280825.899242,1897
1669280825.9001381,1915
1669280825.9231355,1925
1669280825.9241414,1929
1669280825.9301422,1931
1669280825.9481354,1929
1669280825.9491403,1924
1669280825.9731345,1919
1669280825.974134,1907
1669280825.9981754,1894
1669280825.999135,1877
1669280826.0001435,1867
1669280826.023151,1865
1669280826.0241365,1860
1669280826.0481324,1853
1669280826.0491323,1844
1669280826.0501351,1831
1669280826.0731344,1822
1669280826.0741365,1818
1669280826.0981739,1808
1669280826.0991416,1797
1669280826.1001465,1790
1669280826.150135,1792
1669280826.1511357,1794
1669280826.1731365,1797
1669280826.1981373,1833
1669280826.1991558,1838
1669280826.2241347,1844
1669280826.2541864,1854
1669280826.2551894,1862
1669280826.273135,1859
1669280826.2981331,1857
1669280826.2991347,1853
1669280826.3001368,1844
1669280826.3231504,1835
1669280826.3241358,1825
1669280826.3511736,1818
1669280826.373135,1808
1669280826.3741386,1805
1669280826.3981366,1800
1669280826.399137,1797
1669280826.400139,1798
1669280826.423135,1803
1669280826.4241357,1812
1669280826.4541686,1852
1669280826.4591331,1868
1669280826.4731343,1883
1669280826.5001366,1911
1669280826.5231326,1912
1669280826.5491335,1898
1669280826.5731378,1892
1669280826.5981557,1883
1669280826.6011343,1846
1669280826.6031342,1834
1669280826.6231346,1827
1669280826.6241424,1820
1669280826.6481333,1812
1669280826.6491337,1807
1669280826.6501336,1804
1669280826.6731355,1800
1669280826.674136,1792
1669280826.6981337,1784
1669280826.6991363,1780
1669280826.7001464,1782
1669280826.7231362,1791
1669280826.7241724,1799
1669280826.7481709,1809
1669280826.7491708,1816
1669280826.7741349,1825
1669280826.7981713,1826
1669280826.7991357,1828
1669280826.8241367,1804
1669280826.8481371,1796
1669280826.8491433,1793
1669280826.8501415,1797
1669280826.8941643,1805
1669280826.8951402,1812
1669280826.8961377,1819
1669280826.8981373,1821
1669280826.903201,1820
1669280826.9231381,1820
1669280826.9241657,1821
1669280826.9481437,1820
1669280826.9491668,1818
1669280826.9501715,1812
1669280826.973135,1804
1669280826.974136,1795
1669280826.9811702,1791
1669280826.998144,1791
1669280826.9992192,1792
1669280827.0231335,1797
1669280827.0241377,1806
1669280827.0481315,1818
1669280827.049133,1831
1669280827.0503876,1845
1669280827.0731437,1862
1669280827.0741374,1876
1669280827.0981352,1890
1669280827.0991392,1903
1669280827.10032,1909
1669280827.1231494,1910
1669280827.1241677,1906
1669280827.148138,1897
1669280827.1491413,1880
1669280827.150166,1865
1669280827.1981528,1827
1669280827.1991384,1821
1669280827.2001367,1821
1669280827.2481341,1831
1669280827.2731473,1831
1669280827.2741375,1838
1669280827.299138,1842
1669280827.3001354,1843
1669280827.3011355,1844
1669280827.3231344,1848
1669280827.3241327,1856
1669280827.3481338,1864
1669280827.3491364,1870
1669280827.3501363,1880
1669280827.3731327,1888
1669280827.3741357,1896
1669280827.4001353,1901
1669280827.401132,1905
1669280827.40314,1907
1669280827.4231436,1906
1669280827.4241686,1907
1669280827.4481356,1909
1669280827.473134,1928
1669280827.4741342,1932
1669280827.5001357,1924
1669280827.5301354,1919
1669280827.5481343,1903
1669280827.549138,1885
1669280827.5501404,1873
1669280827.5511377,1866
1669280827.573138,1867
1669280827.5741687,1873
1669280827.598207,1883
1669280827.599208,1893
1669280827.6002078,1907
1669280827.6231375,1925
1669280827.6491375,1966
1669280827.650147,1971
1669280827.6731396,1968
1669280827.674166,1961
1669280827.6981688,1950
1669280827.6991777,1936
1669280827.7012086,1928
1669280827.72314,1919
1669280827.7241652,1909
1669280827.748134,1901
1669280827.749135,1893
1669280827.751136,1894
1669280827.7731364,1901
1669280827.7741387,1907
1669280827.7982078,1913
1669280827.7992241,1918
1669280827.8002212,1919
1669280827.8231442,1919
1669280827.831136,1913
1669280827.8481357,1910
1669280827.8491664,1906
1669280827.874134,1891
1669280827.8981361,1887
1669280827.8991373,1880
1669280827.9001353,1877
1669280827.9231477,1877
1669280827.924139,1873
1669280827.9481742,1876
1669280827.9991376,1882
1669280828.0001395,1885
1669280828.0021408,1885
1669280828.0231373,1880
1669280828.0241408,1876
1669280828.025135,1873
1669280828.0481336,1869
1669280828.0491374,1865
1669280828.0501342,1857
1669280828.0731375,1848
1669280828.0741374,1843
1669280828.0981336,1848
1669280828.099137,1856
1669280828.100134,1869
1669280828.1231346,1885
1669280828.1241343,1898
1669280828.1701336,1913
1669280828.1721356,1928
1669280828.1731353,1942
1669280828.1741335,1948
1669280828.1991656,1964
1669280828.200164,1957
1669280828.2231658,1942
1669280828.2241673,1926
1669280828.2481363,1913
1669280828.2491393,1902
1669280828.25015,1894
1669280828.2731364,1890
1669280828.2741332,1894
1669280828.298134,1904
1669280828.299166,1911
1669280828.3001647,1913
1669280828.3231354,1912
1669280828.3241622,1907
1669280828.348135,1902
1669280828.3491337,1894
1669280828.3501358,1892
1669280828.373137,1887
1669280828.3741422,1884
1669280828.3982155,1880
1669280828.4231415,1864
1669280828.4241357,1866
1669280828.4483736,1867
1669280828.4723685,1870
1669280828.4743683,1871
1669280828.4753673,1872
1669280828.476367,1871
1669280828.4983737,1871
1669280828.4994574,1873
1669280828.5004573,1878
1669280828.5224035,1887
1669280828.5243974,1896
1669280828.5483685,1904
1669280828.5494,1906
1669280828.5503683,1902
1669280828.5723665,1898
1669280828.5743692,1897
1669280828.5983734,1898
1669280828.5995533,1901
1669280828.6005545,1894
1669280828.6233861,1883
1669280828.6244018,1876
1669280828.6483748,1877
1669280828.649372,1880
1669280828.6503756,1889
1669280828.6733773,1900
1669280828.6744034,1907
1669280828.6983714,1913
1669280828.6995604,1921
1669280828.700557,1927
1669280828.7233717,1934
1669280828.7244,1942
1669280828.748366,1951
1669280828.7493656,1960
1669280828.750365,1964
1669280828.8113666,1938
1669280828.8123677,1932
1669280828.814366,1925
1669280828.8493695,1915
1669280828.8503764,1907
1669280828.8514042,1898
1669280828.8733714,1892
1669280828.8744013,1887
1669280828.8983724,1882
1669280828.899462,1877
1669280828.9243712,1871
1669280828.9483683,1875
1669280828.9493706,1882
1669280828.9503746,1891
1669280828.9733653,1895
1669280828.9853687,1894
1669280828.998375,1895
1669280829.0233686,1908
1669280829.0243742,1906
1669280829.048373,1906
1669280829.0723689,1897
1669280829.0743701,1895
1669280829.0983708,1897
1669280829.099376,1896
1669280829.1013684,1891
1669280829.1223683,1884
1669280829.124367,1872
1669280829.148368,1869
1669280829.1493776,1867
1669280829.1723702,1868
1669280829.1743658,1863
1669280829.1753669,1865
1669280829.1993673,1872
1669280829.2003682,1881
1669280829.201366,1893
1669280829.2223678,1906
1669280829.2493696,1952
1669280829.2733688,1963
1669280829.2744007,1971
1669280829.2983692,1974
1669280829.2993705,1971
1669280829.3233666,1966
1669280829.3243682,1959
1669280829.3473663,1921
1669280829.349378,1899
1669280829.3503716,1883
1669280829.373371,1873
1669280829.3743734,1867
1669280829.3983665,1864
1669280829.3993673,1858
1669280829.4243753,1820
1669280829.4503694,1807
1669280829.4513674,1790
1669280829.498367,1799
1669280829.4993649,1814
1669280829.5003724,1828
1669280829.5223715,1848
1669280829.5243669,1868
1669280829.5483654,1882
1669280829.5493765,1890
1669280829.5503688,1898
1669280829.572366,1900
1669280829.5743725,1905
1669280829.597383,1913
1669280829.6223733,1919
1669280829.6473813,1932
1669280829.6493726,1936
1669280829.6504035,1935
1669280829.6513805,1939
1669280829.6733682,1942
1669280829.6743686,1945
1669280829.6973686,1945
1669280829.6994348,1942
1669280829.7004247,1939
1669280829.7223716,1938
1669280829.7274024,1937
1669280829.7483697,1935
1669280829.749367,1935
1669280829.7513688,1940
1669280829.77337,1943
1669280829.7743702,1945
1669280829.797447,1954
1669280829.799448,1968
1669280829.823372,1978
1669280829.8243973,1984
1669280829.8254018,1991
1669280829.8473806,1997
1669280829.8493748,2005
1669280829.8723676,2011
1669280829.8743677,2009
1669280829.875367,2002
1669280829.8985436,1992
1669280829.8995492,1979
1669280829.9005456,1966
1669280829.9233723,1953
1669280829.9243982,1943
1669280829.9473703,1937
1669280829.9493706,1935
1669280829.9503713,1935
1669280829.9723728,1931
1669280829.974368,1923
1669280829.9984763,1917
1669280829.999548,1915
1669280830.0005455,1908
1669280830.023372,1908
1669280830.0243976,1906
1669280830.0483656,1905
1669280830.0493655,1907
1669280830.0903692,1911
1669280830.0913694,1918
1669280830.0923674,1927
1669280830.0943704,1934
1669280830.0953774,1938
1669280830.1233764,1943
1669280830.124401,1953
1669280830.1324124,1962
1669280830.1483703,1969
1669280830.1493714,1969
1669280830.1505563,1967
1669280830.17337,1960
1669280830.174369,1943
1669280830.200369,1899
1669280830.2233682,1892
1669280830.2243698,1882
1669280830.2493687,1875
1669280830.250369,1863
1669280830.2513688,1853
1669280830.2733693,1839
1669280830.2993708,1803
1669280830.3233676,1802
1669280830.324367,1806
1669280830.3543653,1891
1669280830.3733678,1927
1669280830.3983662,1954
1669280830.3993683,1973
1669280830.4223664,1983
1669280830.4243655,1993
1669280830.4253657,2004
1669280830.426365,2010
1669280830.448367,2012
1669280830.4493692,2007
1669280830.454366,2004
1669280830.473372,2002
1669280830.4743671,1996
1669280830.4973686,1993
1669280830.4994438,1985
1669280830.54837,1950
1669280830.5493672,1941
1669280830.5733714,1930
1669280830.574367,1922
1669280830.5753822,1921
1669280830.5983694,1923
1669280830.6243687,1962
1669280830.6483693,1972
1669280830.6743765,1952
1669280830.697403,1945
1669280830.6994407,1938
1669280830.7303677,1931
1669280830.7313676,1927
1669280830.7323692,1920
1669280830.775367,1911
1669280830.7763844,1911
1669280830.77837,1914
1669280830.7983668,1921
1669280830.7993674,1932
1669280830.8233688,1935
1669280830.8243663,1932
1669280830.8733673,1916
1669280830.8743658,1911
1669280830.8803742,1904
1669280830.898369,1894
1669280830.8994288,1884
1669280830.9004276,1874
1669280830.9233708,1870
1669280830.924397,1878
1669280830.9253979,1893
1669280830.9483712,1910
1669280830.9493713,1924
1669280830.9733717,1939
1669280830.9743688,1955
1669280830.9753673,1970
1669280830.9983747,1980
1669280830.9994485,1984
1669280831.023371,1979
1669280831.0243976,1970
1669280831.0253716,1960
1669280831.0483654,1945
1669280831.0494032,1930
1669280831.073371,1923
1669280831.0744002,1924
1669280831.0753655,1930
1669280831.0983906,1936
1669280831.0994542,1936
1669280831.1233702,1932
1669280831.124397,1930
1669280831.1483724,1930
1669280831.1494012,1934
1669280831.1733723,1938
1669280831.1743982,1941
1669280831.175403,1941
1669280831.176385,1939
1669280831.1983697,1942
1669280831.1995585,1948
1669280831.2233694,1957
1669280831.2244027,1966
1669280831.2253683,1969
1669280831.248366,1973
1669280831.2493691,1973
1669280831.273367,1977
1669280831.2743673,1983
1669280831.275368,1983
1669280831.3024437,1964
1669280831.3233688,1954
1669280831.3243694,1948
1669280831.3705757,1945
1669280831.3993661,1926
1669280831.4005477,1910
1669280831.42337,1889
1669280831.4244,1872
1669280831.4253993,1858
1669280831.4483662,1853
1669280831.449368,1857
1669280831.4734623,1874
1669280831.498474,1958
1669280831.49946,1987
1669280831.5057468,2015
1669280831.5228426,2041
1669280831.523842,2062
1669280831.5478458,2077
1669280831.5728436,2081
1669280831.5738423,2075
1669280831.598029,2060
1669280831.5998375,2042
1669280831.601047,2022
1669280831.6020532,2002
1669280831.6238384,1964
1669280831.6478486,1962
1669280831.697841,1942
1669280831.7238414,1934
1669280831.72584,1937
1669280831.7478397,1942
1669280831.7488458,1941
1669280831.7728374,1942
1669280831.7738388,1944
1669280831.7758377,1951
1669280831.797837,1957
1669280831.822839,1959
1669280831.8238392,1958
1669280831.8288414,1954
1669280831.8478389,1946
1669280831.8488367,1940
1669280831.8508544,1935
1669280831.8728378,1930
1669280831.8738368,1926
1669280831.8988712,1922
1669280831.9228725,1922
1669280831.9238381,1924
1669280831.9488466,1918
1669280831.9728708,1916
1669280832.0108478,1927
1669280832.0118437,1936
1669280832.012842,1947
1669280832.0488458,2010
1669280832.0508535,2034
1669280832.0728438,2057
1669280832.097836,2080
1669280832.098874,2072
1669280832.125844,2041
1669280832.1478598,2028
1669280832.1488392,2015
1669280832.1728394,2003
1669280832.17384,1995
1669280832.1758423,1988
1669280832.1978579,1977
1669280832.1988428,1968
1669280832.222839,1963
1669280832.223838,1964
1669280832.2258377,1970
1669280832.247839,1978
1669280832.2728388,1995
1669280832.2978537,2004
1669280832.2988393,2012
1669280832.322838,2016
1669280832.323839,2015
1669280832.325841,2008
1669280832.3478434,1995
1669280832.3488407,1981
1669280832.3508475,1971
1669280832.3728383,1965
1669280832.3738394,1958
1669280832.3758411,1951
1669280832.3978384,1945
1669280832.398842,1936
1669280832.4228685,1925
1669280832.4238682,1913
1669280832.4258692,1899
1669280832.4478421,1892
1669280832.4488473,1890
1669280832.4728417,1894
1669280832.473871,1899
1669280832.4758406,1901
1669280832.4978385,1898
1669280832.4988723,1895
1669280832.5228665,1895
1669280832.523867,1905
1669280832.525894,1921
1669280832.5481691,1944
1669280832.5492089,1966
1669280832.573198,1992
1669280832.5741925,2018
1669280832.575177,2045
1669280832.5982764,2068
1669280832.5992613,2087
1669280832.6251872,2112
1669280832.650178,2100
1669280832.6731987,2048
1669280832.674164,2038
1669280832.6981673,2031
1669280832.6991997,2026
1669280832.7231987,2019
1669280832.7241979,2007
1669280832.7251735,1995
1669280832.748178,1985
1669280832.749182,1975
1669280832.7731814,1969
1669280832.7741985,1967
1669280832.775163,1972
1669280832.7982316,1982
1669280832.7991993,1986
1669280832.8232028,1987
1669280832.8241684,1984
1669280832.8271701,1982
1669280832.8731637,1996
1669280832.8742013,1992
1669280832.8751636,1987
1669280832.9231699,1965
1669280832.924167,1960
1669280832.9731684,1925
1669280832.9781675,1914
1669280832.9791715,1903
1669280833.0231683,1888
1669280833.0241692,1889
1669280833.0251713,1891
1669280833.0481665,1897
1669280833.0491703,1901
1669280833.073166,1912
1669280833.0981672,1950
1669280833.099166,1967
1669280833.123164,1994
1669280833.1241646,2017
1669280833.1251643,2043
1669280833.148163,2067
1669280833.1491673,2084
1669280833.173166,2101
1669280833.1741672,2109
1669280833.1751657,2111
1669280833.1981754,2106
1669280833.1991644,2094
1669280833.2231688,2080
1669280833.2241673,2062
1669280833.2251685,2047
1669280833.2481713,2034
1669280833.2931707,2012
1669280833.2981677,2005
1669280833.2991924,1992
1669280833.3241706,1945
1669280833.348166,1935
1669280833.3491688,1929
1669280833.3501704,1921
1669280833.3731976,1919
1669280833.374202,1919
1669280833.3992505,1920
1669280833.4011722,1922
1669280833.4022474,1926
1669280833.4231956,1933
1669280833.4241695,1939
1669280833.4251957,1940
1669280833.448172,1942
1669280833.449175,1939
1669280833.4731956,1936
1669280833.4741964,1929
1669280833.4751687,1924
1669280833.5231957,1923
1669280833.5241947,1923
1669280833.5251977,1919
1669280833.5281966,1914
1669280833.5501642,1884
1669280833.5731752,1874
1669280833.5741663,1867
1669280833.5752027,1866
1669280833.598253,1865
1669280833.5992522,1863
1669280833.6231952,1864
1669280833.6241622,1865
1669280833.6251986,1867
1669280833.6481988,1876
1669280833.6491861,1886
1669280833.6732032,1893
1669280833.6741638,1898
1669280833.6751657,1909
1669280833.698251,1927
1669280833.69925,1948
1669280833.7231982,1977
1669280833.72417,2009
1669280833.7251987,2039
1669280833.7481675,2067
1669280833.7491658,2089
1669280833.7731993,2104
1669280833.7742002,2109
1669280833.7771635,2106
1669280833.7983549,2096
1669280833.7991662,2080
1669280833.827175,2060
1669280833.8282037,2039
1669280833.8291664,2020
1669280833.8481712,2004
1669280833.8731635,1992
1669280833.8741658,1981
1669280833.8983586,1967
1669280833.899168,1954
1669280833.9343581,1916
1669280833.9362583,1914
1669280833.937171,1917
1669280833.938167,1919
1669280833.9732072,1919
1669280833.9741979,1910
1669280833.9761698,1897
1669280833.9771652,1887
1669280833.9982626,1876
1669280833.999254,1867
1669280834.0231972,1863
1669280834.0241988,1864
1669280834.0252006,1868
1669280834.0481787,1874
1669280834.0491688,1880
1669280834.073173,1891
1669280834.0742004,1905
1669280834.076167,1914
1669280834.0981622,1920
1669280834.0991654,1925
1669280834.123198,1926
1669280834.1241987,1925
1669280834.1252003,1916
1669280834.1481764,1902
1669280834.1491687,1888
1669280834.1731973,1880
1669280834.1981652,1881
1669280834.199257,1880
1669280834.2481627,1864
1669280834.2731676,1857
1669280834.2741675,1852
1669280834.2981648,1855
1669280834.2991657,1864
1669280834.3231647,1869
1669280834.3241649,1871
1669280834.3251657,1879
1669280834.3481643,1897
1669280834.3781679,2012
1669280834.3981721,2036
1669280834.3991754,2056
1669280834.4231648,2072
1669280834.424171,2074
1669280834.452161,2070
1669280834.4531693,2061
1669280834.4541678,2043
1669280834.473165,2021
1669280834.4741638,1999
1669280834.4981735,1976
1669280834.5231638,1930
1669280834.5241647,1915
1669280834.5751696,1912
1669280834.5771842,1915
1669280834.598165,1919
1669280834.60219,1915
1669280834.6231658,1913
1669280834.624182,1906
1669280834.625166,1894
1669280834.6481671,1885
1669280834.6491725,1879
1669280834.6731944,1882
1669280834.6991994,1877
1669280834.7231705,1869
1669280834.7241669,1858
1669280834.7271693,1853
1669280834.7481692,1851
1669280834.7491684,1850
1669280834.7731953,1852
1669280834.7741983,1852
1669280834.775175,1852
1669280834.7982454,1854
1669280834.7991738,1861
1669280834.823195,1866
1669280834.8241968,1867
1669280834.827198,1867
1669280834.848166,1864
1669280834.8491638,1861
1669280834.877166,1861
1669280834.8781662,1861
1669280834.8791707,1863
1669280834.898351,1862
1669280834.9341655,1852
1669280834.9481635,1841
1669280834.9491656,1830
1669280834.95017,1817
1669280834.9731648,1807
1669280834.9741893,1799
1669280834.998179,1803
1669280834.9991884,1813
1669280835.0001712,1827
1669280835.023162,1845
1669280835.024167,1864
1669280835.025163,1886
1669280835.0481672,1913
1669280835.0491636,1935
1669280835.073168,1958
1669280835.09817,1999
1669280835.0991962,2001
1669280835.1231654,1994
1669280835.1241682,1979
1669280835.1251912,1965
1669280835.1481652,1954
1669280835.1492388,1944
1669280835.1731648,1932
1669280835.1741664,1922
1669280835.1751666,1915
1669280835.214166,1919
1669280835.2151642,1918
1669280835.217163,1915
1669280835.2181625,1914
1669280835.2482085,1913
1669280835.2491677,1906
1669280835.250239,1896
1669280835.2731678,1886
1669280835.2741961,1880
1669280835.2771642,1871
1669280835.2982037,1863
1669280835.2992318,1855
1669280835.327196,1849
1669280835.3481717,1844
1669280835.349167,1840
1669280835.3731966,1838
1669280835.3741949,1837
1669280835.3982387,1838
1669280835.399232,1840
1669280835.4022317,1844
1669280835.4231946,1850
1669280835.4481695,1855
1669280835.4491677,1856
1669280835.4501944,1855
1669280835.4522293,1853
1669280835.4732008,1852
1669280835.4742026,1851
1669280835.498248,1846
1669280835.499258,1841
1669280835.5001705,1836
1669280835.5231946,1828
1669280835.5241663,1818
1669280835.5481644,1805
1669280835.5731688,1780
1669280835.5741642,1779
1669280835.5751698,1783
1669280835.5981874,1786
1669280835.5993419,1790
1669280835.6231947,1795
1669280835.6241949,1796
1669280835.649171,1795
1669280835.6731644,1794
1669280835.6741695,1789
1669280835.675169,1793
1669280835.6981661,1801
1669280835.699179,1814
1669280835.7231984,1832
1669280835.7491724,1871
1669280835.7501738,1884
1669280835.7731667,1902
1669280835.7982287,1946
1669280835.799231,1954
1669280835.8231645,1956
1669280835.8241715,1949
1669280835.850164,1935
1669280835.8521647,1919
1669280835.8531651,1896
1669280835.8731666,1881
1669280835.8741634,1870
1669280835.8981674,1867
1669280835.927201,1861
1669280835.9282048,1856
1669280835.9291642,1850
1669280835.9301996,1843
1669280835.9322314,1835
1669280835.9481657,1829
1669280835.9751687,1821
1669280835.9981666,1823
1669280835.9991705,1824
1669280836.0001984,1828
1669280836.0271661,1840
1669280836.0281668,1849
1669280836.0291934,1855
1669280836.0481687,1864
1669280836.049198,1874
1669280836.0731683,1886
1669280836.0751667,1894
1669280836.098168,1896
1669280836.1241705,1838
1669280836.1262057,1830
1669280836.148168,1828
1669280836.1531677,1832
1669280836.1731653,1843
1669280836.1982067,1857
1669280836.2022393,1890
1669280836.2231667,1886
1669280836.2241943,1874
1669280836.2332244,1863
1669280836.248171,1860
1669280836.2491708,1863
1669280836.2731977,1863
1669280836.2741952,1861
1669280836.298232,1857
1669280836.2991686,1854
1669280836.3001995,1846
1669280836.3231716,1834
1669280836.324203,1823
1669280836.3481646,1815
1669280836.3491688,1810
1669280836.3501666,1807
1669280836.3731973,1806
1669280836.374166,1807
1669280836.398168,1815
1669280836.399237,1828
1669280836.4001966,1844
1669280836.4231675,1870
1669280836.4241998,1894
1669280836.44817,1913
1669280836.449169,1924
1669280836.4501643,1932
1669280836.490199,1930
1669280836.4921682,1926
1669280836.4931986,1919
1669280836.4942021,1908
1669280836.523169,1894
1669280836.524195,1877
1669280836.5251992,1866
1669280836.5481677,1858
1669280836.5491679,1853
1669280836.5501955,1851
1669280836.5732062,1855
1669280836.5751803,1858
1669280836.5982394,1861
1669280836.5992248,1863
1669280836.6001651,1859
1669280836.6231983,1853
1669280836.6241953,1854
1669280836.6272027,1854
1669280836.6521904,1853
1669280836.6531699,1852
1669280836.6732144,1847
1669280836.67417,1836
1669280836.6983573,1825
1669280836.7001734,1818
1669280836.7013502,1813
1669280836.7231944,1810
1669280836.72417,1808
1669280836.7481668,1808
1669280836.7491665,1807
1669280836.7501664,1807
1669280836.7731981,1807
1669280836.7741694,1804
1669280836.7982545,1807
1669280836.7991838,1816
1669280836.8012102,1819
1669280836.8231976,1825
1669280836.849185,1837
1669280836.8512187,1828
1669280836.8731663,1817
1669280836.8741663,1804
1669280836.898322,1796
1669280836.8993468,1788
1669280836.9231741,1780
1669280836.924201,1776
1669280836.9481623,1782
1669280836.949162,1791
1669280836.951164,1799
1669280836.952272,1804
1669280836.9732003,1803
1669280836.9751654,1797
1669280836.9981678,1797
1669280836.999168,1803
1669280837.0241678,1820
1669280837.0481648,1817
1669280837.0491738,1814
1669280837.0781658,1852
1669280837.0791671,1874
1669280837.0981646,1898
1669280837.0991652,1921
1669280837.1311753,1944
1669280837.132176,1960
1669280837.1331656,1974
1669280837.1481645,1980
1669280837.149166,1976
1669280837.1731625,1967
1669280837.174171,1948
1669280837.1981707,1931
1669280837.1991718,1912
1669280837.2001984,1893
1669280837.2231984,1877
1669280837.2242048,1856
1669280837.2491648,1808
1669280837.2731647,1800
1669280837.2741704,1795
1669280837.2982037,1793
1669280837.2992387,1792
1669280837.3001661,1794
1669280837.3231957,1796
1669280837.3501678,1790
1669280837.3731778,1791
1669280837.4231722,1796
1669280837.4482038,1787
1669280837.449202,1781
1669280837.450199,1776
1669280837.4521692,1777
1669280837.4731953,1785
1669280837.475165,1792
1669280837.4992383,1795
1669280837.5001667,1797
1669280837.5021684,1800
1669280837.523194,1808
1669280837.524195,1812
1669280837.5481684,1812
1669280837.5491686,1814
1669280837.5502288,1812
1669280837.5731635,1807
1669280837.5741696,1804
1669280837.59824,1806
1669280837.5992405,1815
1669280837.6041994,1821
1669280837.6232,1821
1669280837.6241984,1816
1669280837.648167,1812
1669280837.6492004,1807
1669280837.650199,1807
1669280837.6732004,1809
1669280837.6741662,1811
1669280837.6981678,1811
1669280837.6992385,1813
1669280837.700234,1814
1669280837.7231987,1815
1669280837.724172,1817
1669280837.770171,1826
1669280837.772165,1839
1669280837.773175,1852
1669280837.7741644,1857
1669280837.7751665,1861
1669280837.7981644,1868
1669280837.7991633,1878
1669280837.8001635,1882
1669280837.8232172,1878
1669280837.8242023,1876
1669280837.848167,1868
1669280837.8491976,1857
1669280837.850197,1845
1669280837.8731985,1839
1669280837.874169,1834
1669280837.8981893,1828
1669280837.899226,1823
1669280837.9001977,1819
1669280837.9231935,1814
1669280837.9281652,1808
1669280837.929229,1809
1669280837.9481947,1811
1669280837.9491649,1812
1669280837.9731963,1815
1669280837.974197,1816
1669280837.9982579,1817
1669280837.9992573,1817
1669280838.0012558,1818
1669280838.048165,1828
1669280838.0491982,1819
1669280838.0512557,1804
1669280838.0731726,1778
1669280838.074165,1741
1669280838.0982268,1698
1669280838.0992572,1655
1669280838.1011822,1615
1669280838.123202,1585
1669280838.1241982,1563
1669280838.1482103,1550
1669280838.1491973,1551
1669280838.1511676,1567
1669280838.173208,1595
1669280838.1741724,1625
1669280838.1981885,1664
1669280838.2231846,1802
1669280838.2241676,1839
1669280838.2481668,1871
1669280838.2731676,1893
1669280838.274166,1905
1669280838.275165,1906
1669280838.298162,1900
1669280838.3021646,1860
1669280838.323165,1850
1669280838.3241646,1840
1669280838.3501658,1814
1669280838.3731778,1811
1669280838.4121766,1839
1669280838.4131694,1859
1669280838.4141674,1880
1669280838.4481647,1896
1669280838.449165,1913
1669280838.4501634,1928
1669280838.452165,1940
1669280838.473167,1950
1669280838.4741642,1949
1669280838.4981766,1943
1669280838.4991803,1929
1669280838.5001645,1915
1669280838.5232067,1902
1669280838.5241675,1887
1669280838.5481954,1872
1669280838.5501952,1853
1669280838.5741665,1835
1669280838.598238,1821
1669280838.599238,1806
1669280838.6002018,1794
1669280838.6021647,1783
1669280838.6241703,1772
1669280838.648169,1771
1669280838.6491694,1766
1669280838.674187,1779
1669280838.6982386,1791
1669280838.7231698,1831
1669280838.7241914,1839
1669280838.7481763,1848
1669280838.7741718,1874
1669280838.7981648,1874
1669280838.7991652,1879
1669280838.8001637,1884
1669280838.8231657,1884
1669280838.8241754,1874
1669280838.8481648,1863
1669280838.849165,1849
1669280838.8501658,1833
1669280838.8731658,1816
1669280838.8741708,1804
1669280838.8801663,1800
1669280838.8981738,1801
1669280838.9231634,1805
1669280838.9241664,1808
1669280838.9251664,1813
1669280838.9481652,1820
1669280838.973171,1818
1669280838.975167,1812
1669280838.975167,1807
1669280838.9982495,1799
1669280838.9991703,1791
1669280839.001248,1786
1669280839.0021708,1789
1669280839.0231948,1796
1669280839.0242019,1801
1669280839.0512536,1809
1669280839.0521677,1818
1669280839.053195,1827
1669280839.0741677,1836
1669280839.0741677,1842
1669280839.0982444,1849
1669280839.0991666,1853
1669280839.110233,1852
1669280839.1231925,1847
1669280839.1241992,1843
1669280839.148261,1839
1669280839.149178,1834
1669280839.151209,1830
1669280839.1732092,1833
1669280839.1742005,1842
1669280839.1982496,1851
1669280839.2001958,1851
1669280839.2013686,1848
1669280839.223202,1846
1669280839.2241688,1840
1669280839.2481694,1837
1669280839.2491684,1835
1669280839.2732022,1833
1669280839.2741752,1829
1669280839.276166,1826
1669280839.3001702,1822
1669280839.3013766,1817
1669280839.3021672,1810
1669280839.3232005,1811
1669280839.3242018,1813
1669280839.3481724,1818
1669280839.3491662,1823
1669280839.3511813,1824
1669280839.3731687,1823
1669280839.3742063,1823
1669280839.4031787,1824
1669280839.4231772,1832
1669280839.4242005,1843
1669280839.4481716,1851
1669280839.449168,1855
1669280839.4731987,1854
1669280839.4741685,1844
1669280839.4751754,1832
1669280839.498166,1822
1669280839.4991994,1811
1669280839.5232005,1810
1669280839.5241652,1813
1669280839.5261683,1815
1669280839.5481713,1820
1669280839.5491657,1825
1669280839.5501666,1830
1669280839.5731726,1828
1669280839.5741713,1819
1669280839.5981996,1812
1669280839.5992014,1808
1669280839.623195,1808
1669280839.6481676,1837
1669280839.6921704,1879
1669280839.6931715,1885
1669280839.7231662,1887
1669280839.7241664,1886
1669280839.7261732,1885
1669280839.7271676,1887
1669280839.7481644,1891
1669280839.749182,1889
1669280839.7511685,1892
1669280839.7731848,1886
1669280839.7741714,1876
1669280839.7981663,1865
1669280839.8241653,1823
1669280839.8261626,1809
1669280839.848171,1805
1669280839.8491673,1807
1669280839.8521647,1812
1669280839.8731859,1817
1669280839.8741646,1820
1669280839.8981657,1822
1669280839.899166,1819
1669280839.9011657,1821
1669280839.9231684,1831
1669280839.924183,1842
1669280839.9481652,1855
1669280839.9491668,1863
1669280839.9731686,1869
1669280839.974167,1877
1669280840.000168,1877
1669280840.0021653,1877
1669280840.0231981,1881
1669280840.0491672,1878
1669280840.0521734,1870
1669280840.0731666,1867
1669280840.0741727,1864
1669280840.0981686,1862
1669280840.0992012,1859
1669280840.1232035,1852
1669280840.1491687,1835
1669280840.1501956,1839
1669280840.1731665,1854
1669280840.1741729,1869
1669280840.1981642,1883
1669280840.199165,1896
1669280840.2001634,1908
1669280840.223166,1919
1669280840.2241669,1924
1669280840.2491643,1929
1669280840.2501643,1927
1669280840.2761703,1920
1669280840.2981653,1918
1669280840.2991652,1913
1669280840.3301663,1905
1669280840.3321767,1896
1669280840.3331802,1888
